-46,2998,7,0,-15,17,-34,-16,-70,-30
-6,2206,20,1,-16,15,-22,-4,-57,10
21,1224,38,7,-5,19,9,-1,-55,20
55,365,30,22,-6,2,33,-7,-72,19
70,-376,0,25,-4,-9,42,-6,-75,6
72,-1032,46,20,-18,-16,30,19,-11,16
82,-1439,64,24,-29,-25,11,46,68,27
68,-1403,71,35,-17,-23,25,42,66,-3
33,-1092,62,17,-14,-16,28,32,69,-23
8,1215,46,24,10,-7,-21,-6,-1,-54
1,2203,57,28,9,14,-11,-17,-9,-76
-14,3205,51,14,7,39,-12,-38,-60,-101
-21,3939,44,10,2,43,-12,-40,-71,-98
-13,4127,53,23,-6,22,-28,-50,-82,-63
-24,3915,46,16,-9,13,-45,-42,-73,-45
-16,3392,21,8,-4,18,-38,-2,-16,-21
16,2476,-23,20,22,1,-10,35,73,9
42,1465,-58,21,24,-5,-7,35,99,46
43,499,2,10,-9,-4,-13,29,34,63
40,-385,52,20,-11,1,-1,19,2,14
59,-1092,59,17,-10,-6,19,28,-6,1
49,-1442,55,-3,-29,-14,21,30,-42,-2
41,-1427,21,-10,-18,-27,13,10,-69,-3
33,-1205,16,3,5,-28,15,-3,-63,-5
33,-700,17,0,11,-31,16,3,30,-1
23,-20,-8,-16,0,-35,18,35,153,-3
-6,673,-18,-27,-5,-24,15,54,135,-14
-28,1473,-33,-46,-20,-13,-4,34,92,-28
-53,2239,-34,-31,-31,10,-2,33,86,-34
-60,2652,-13,-3,-7,31,5,40,56,-46
-25,2547,19,11,44,50,32,36,52,-47
5,2130,-5,12,55,46,33,20,78,-14
17,1355,3,11,26,29,13,9,65,21
22,275,16,-1,-12,27,1,0,2,53
31,-732,26,-1,-18,10,15,-2,-15,66
25,-1609,10,2,-27,-7,46,13,7,56
22,-2372,-6,-10,-45,0,78,18,27,38
34,-2934,10,3,-19,10,89,4,15,-1
39,-3091,-7,25,39,17,96,-11,57,-22
41,-2934,-85,22,49,13,96,-1,80,-24
57,-2535,-21,12,18,0,47,15,75,-2
44,-1883,-4,-5,-9,0,14,2,-4,9
26,-1107,-2,-5,13,9,10,-33,-69,8
5,-140,29,10,44,15,8,-51,-81,-1
-36,861,7,-10,5,12,-16,-63,-93,-7
-74,1633,-15,-39,-32,4,-42,-57,-91,-5
-76,1952,-31,-42,-14,-2,-5,-43,-28,-1
-77,1843,-40,-32,15,3,21,-41,-10,4
-62,1448,1,-27,-11,13,21,-54,-73,5
-34,694,13,-26,-1,1,27,-47,-56,10
-27,-236,9,-28,9,-13,24,3,56,48
-23,-1106,0,-27,17,-19,14,31,100,78
-14,-1873,3,-23,4,-27,5,6,33,51
5,-2527,-14,-22,-11,-39,9,11,25,69
28,-2889,-36,-14,14,-38,46,39,118,94
60,-2825,32,6,29,-28,51,37,121,111
86,-2569,35,6,28,-23,38,9,55,98
69,-2004,11,-14,13,-25,30,-12,23,82
20,-1230,-14,-10,25,-16,31,-27,-1,66
-40,-465,-3,12,30,3,17,-43,7,22
-88,458,-25,19,30,8,9,-49,-21,-7
-88,1428,-44,12,42,21,-11,-46,-32,-17
-78,2093,2,6,37,26,-46,-44,-30,-20
-78,2182,-6,-1,21,23,-56,-37,-30,-25
-71,1936,-3,-6,20,11,-43,-25,17,-18
-44,1383,12,-7,13,-5,-38,-14,0,-12
-13,466,12,-2,-5,-15,-21,-9,-53,-9
-30,-473,4,-13,-26,-22,-7,-8,-71,-15
-14,-1239,-27,-19,-20,-36,14,2,-28,-1
2,-1904,-98,-32,-7,-37,25,17,20,8
16,-2458,-12,-14,-7,-20,12,16,35,-5
16,-2626,6,-2,-9,-17,3,5,-7,0
11,-2423,-29,5,-19,-9,-11,-2,-9,12
15,-1960,18,5,-21,2,-11,26,39,47
28,-1158,44,11,23,0,1,25,66,61
19,-256,33,8,32,0,-3,-8,27,42
-5,664,22,-2,-7,-4,-10,-30,-47,6
-18,1761,33,0,-6,-3,3,-34,-56,-13
-31,2721,32,11,3,6,-17,-42,-54,-25
-40,3259,8,15,0,11,-32,-32,-50,-31
-47,3271,-26,13,-8,16,-18,-16,-47,-31
-43,3016,-9,30,9,19,-30,-4,-36,-29
-19,2388,14,31,32,20,-29,19,19,-17
-19,1465,4,20,0,27,-12,40,23,-2
7,631,-9,13,0,17,4,42,7,-6
30,-83,-8,25,29,5,5,36,10,0
34,-736,-4,22,31,-16,-2,26,20,5
56,-1245,7,14,2,-25,1,29,-9,21
59,-1299,38,26,0,-21,7,24,-14,39
58,-1120,25,10,-20,-22,-7,19,10,49
45,-723,-43,0,-30,-20,-16,14,8,45
10,-66,-77,-16,-40,-22,-32,3,-19,39
-24,637,-11,-17,-36,-23,-40,-8,-46,33
-55,1419,-17,-17,-42,-14,-44,-19,-54,22
-63,2269,-31,-21,-46,-16,-28,-27,-56,21
-40,2915,-34,-20,-45,-14,-7,-32,-62,13
-36,3055,-23,-18,-36,5,-1,-39,-73,2
-27,2761,-24,-11,-36,10,-1,-35,-78,1
-14,2162,-21,-16,-42,-8,-13,-16,-69,9
9,1132,-96,-11,-48,-10,-16,-7,-45,14
24,1,-115,-11,-46,-4,-12,6,-25,30
51,-1023,-7,-8,-45,-14,-27,24,-24,50
60,-1973,30,9,-28,-30,-30,21,-20,49
51,-2807,38,30,-6,-31,-9,18,-15,23
33,-3302,46,21,6,-22,16,9,-2,4
51,-3394,53,8,28,-11,18,15,64,6
45,-3260,42,3,36,3,29,10,90,-8
35,-2829,-7,-4,17,0,15,12,31,15
54,-2208,42,7,10,-10,-21,-3,13,52
48,-1535,33,14,31,-2,-15,-19,-8,52
18,-746,6,16,26,9,-10,-25,-35,28
-8,13,-14,-3,-3,8,-39,-22,-40,-1
-25,491,-80,-10,-24,-6,-54,-7,21,-24
-2,454,-8,9,-1,-4,-28,23,98,-27
-1,104,1,3,-1,-9,-6,40,127,-28
-12,-561,-29,-17,-31,-14,26,54,109,-14
-11,-1513,-44,-31,-12,1,59,58,93,-14
-9,-2432,-32,-32,48,12,64,53,87,-12
15,-3240,-3,-12,57,-2,12,42,73,0
24,-3931,16,-6,41,-6,-3,38,30,13
26,-4448,51,5,48,-8,8,3,0,-4
35,-4541,89,18,60,-14,17,-26,-40,-14
32,-4281,64,6,47,-7,34,-10,-38,-6
6,-3792,31,-7,25,-6,26,9,-24,-13
-8,-2973,20,-7,22,-20,21,13,18,-33
-11,-2068,15,-13,27,-8,-14,5,42,-24
-18,-1114,25,-30,10,2,-60,1,27,-2
-13,-35,16,-22,8,17,-52,25,53,12
-5,899,0,4,30,17,-12,4,40,-14
-3,1329,-5,16,36,18,-14,-16,-4,-40
-9,1241,-2,2,14,9,-23,-18,-1,-37
-22,874,-7,-11,-7,0,-49,-8,-32,-23
-18,173,-8,-11,-11,4,-52,8,-33,-15
12,-734,3,-9,-28,0,-37,15,-24,6
28,-1602,-3,0,-47,-10,-24,10,-33,15
34,-2187,-5,-4,-47,-15,-26,17,-35,27
40,-2651,-18,-12,-29,-21,-28,20,-41,49
47,-3078,-112,-17,-11,-9,-12,26,-32,71
43,-3121,-185,-16,-5,-8,-6,20,-9,58
22,-2869,-186,-12,-12,-1,-12,7,-9,35
0,-2340,-170,-17,-39,2,-21,7,7,18
0,-1562,-109,-4,-46,4,-24,7,3,18
0,-748,-4,-9,-43,19,-25,5,-19,22
-12,199,-22,-17,-40,26,-35,-12,-32,18
-28,1321,-67,-17,-32,27,-47,-25,-38,11
-42,2277,-70,-15,-12,26,-43,-36,-48,-3
-37,2530,-16,-8,4,25,-36,-43,-42,1
-34,2322,46,4,10,14,-27,-39,-48,12
-60,1830,47,15,1,14,-11,-20,-36,5
-90,971,35,9,2,16,8,3,-31,-30
-103,82,31,13,3,16,14,5,-41,-52
-83,-608,19,21,6,18,17,4,-30,-57
-41,-1213,42,29,0,14,19,2,-14,-41
-11,-1730,49,17,-12,8,19,13,-6,-18
0,-1889,31,0,-17,-7,17,22,22,1
18,-1621,-62,3,-7,-2,18,23,6,0
10,-1108,-35,24,14,5,9,3,-18,-14
-8,-264,47,17,19,5,14,2,-21,-36
-11,743,46,13,12,15,7,10,-13,-31
-18,1737,37,13,7,25,-3,1,-12,-35
-35,2878,24,15,15,22,-6,-22,-26,-51
-56,3957,17,23,11,26,-6,-51,-56,-41
-74,4559,11,16,-10,29,-13,-44,-41,-30
-66,4615,20,10,-8,35,-8,-21,-11,-24
-35,4494,30,10,0,36,1,-14,-15,-17
-26,3998,28,17,9,27,10,-5,-8,-17
2,3179,20,0,12,18,44,4,29,-6
32,2388,-38,-11,9,4,56,15,83,-2
36,1593,-90,1,-3,-10,45,18,41,3
47,940,21,16,-10,-16,53,19,5,6
51,490,58,8,-14,1,53,30,8,22
44,444,47,1,-6,-1,58,28,-6,31
33,713,48,13,2,-19,24,7,-15,0
26,1210,-25,14,1,-20,-4,12,6,-2
-1,1987,-13,3,-10,-8,-8,7,-7,8
-2,2841,21,4,-10,-14,-13,-11,-8,3
1,3800,-24,8,-9,-12,-16,-32,-25,-26
-9,4905,13,18,-8,12,-20,-41,-35,-33
-23,5785,31,9,6,20,-22,-24,-43,-27
-19,6160,31,10,15,14,-23,-35,-78,-40
11,6113,41,25,12,5,-30,-42,-84,-29
10,5793,48,16,8,2,-20,-23,-66,-33
-12,5053,48,24,24,17,13,-20,-70,-36
-24,4124,54,41,25,26,15,-16,-68,-17
-30,3263,41,32,21,15,-2,-15,-17,3
-9,2477,-20,35,8,8,5,2,87,41
19,1755,-27,28,-1,10,7,17,115,53
17,1281,54,20,-6,8,2,6,65,42
21,1161,73,19,-14,9,9,0,49,40
32,1299,78,33,3,11,8,1,-1,44
36,1747,61,28,-5,11,7,-3,-42,38
22,2345,30,-10,-23,-1,10,-12,-55,28
-3,2945,6,-28,-10,12,10,-10,-46,20
-29,3620,-38,-15,7,43,33,-10,-69,0
-25,4235,-89,-6,17,45,30,-36,-79,-22
-29,4557,-8,-7,-8,20,7,-34,-13,-12
-31,4431,27,6,-18,19,0,-7,53,0
-31,4025,31,28,-7,34,5,19,66,8
-18,3309,21,19,-8,21,4,3,-1,41
8,2248,-38,2,-30,-1,-3,0,-24,83
25,1104,-9,-3,-30,-6,3,3,-10,82
26,6,36,5,-24,-6,9,15,25,52
32,-963,25,15,-10,0,30,33,24,25
50,-1783,-19,8,-7,-2,55,31,22,4
42,-2289,11,-11,-15,-11,64,66,131,-11
30,-2358,23,-11,-5,-8,79,86,167,-13
36,-2185,41,0,12,-2,85,60,88,6
14,-1750,20,-24,11,3,79,15,26,38
-12,-1228,-24,-36,0,11,61,-8,-26,54
-45,-645,-32,-35,2,13,40,-30,-58,15
-57,81,-25,-22,11,8,4,-52,-45,-23
-41,719,-18,-10,23,5,-29,-50,0,-26
-30,969,-8,-8,26,-1,-31,-5,49,-17
-7,714,-18,5,39,2,-5,25,71,-18
23,174,-4,15,32,8,-8,38,57,-21
29,-739,31,27,43,17,-32,44,62,3
38,-1927,44,30,48,15,-42,26,70,26
41,-3033,39,13,29,0,-44,20,107,33
37,-4032,-10,-10,8,-35,-28,22,127,32
40,-4894,-73,-21,8,-37,-23,17,83,31
55,-5537,-72,-11,21,-18,-31,-4,44,24
51,-5717,-20,-6,24,-18,-41,-12,10,6
61,-5565,48,-2,27,-34,-37,21,72,25
57,-5179,30,-16,3,-36,-11,47,81,36
46,-4469,31,-19,11,-23,6,25,72,18
44,-3704,32,-11,36,-9,-16,5,61,-9
38,-2866,21,-12,42,-6,-42,-3,44,-23
3,-1956,2,-14,19,15,-57,-12,-14,-38
-25,-1237,-9,-10,7,29,-46,-16,-64,-44
-39,-992,-13,-7,8,32,-23,-5,-64,-46
-46,-1155,-27,1,-2,28,0,-6,-50,-30
-38,-1611,-26,3,7,15,-2,-23,-50,-23
-21,-2454,-16,-10,7,1,-5,-30,-41,-33
-5,-3387,-17,-2,1,-7,-8,-29,-39,-34
5,-4210,-11,-19,10,-8,-2,-28,-38,-28
22,-4949,4,-19,22,-10,-14,-26,-41,-8
23,-5566,8,-10,16,-4,-24,-21,-42,0
5,-5856,13,-15,12,7,-24,0,-18,12
-8,-5680,21,2,23,13,-15,15,1,15
-19,-5253,16,5,24,-3,-10,0,-38,4
-6,-4534,10,-6,20,-8,-21,-15,-55,10
19,-3612,-8,-30,7,1,-34,-14,-39,11
19,-2661,-43,-23,0,9,-35,-20,-14,15
30,-1561,-25,-10,20,-1,-30,-38,18,6
33,-486,4,-11,27,-8,-30,-51,38,1
18,234,-2,-26,7,-5,-32,-29,41,20
-19,423,-16,-29,-8,-4,-44,-20,48,32
-58,289,-17,-26,-4,-6,-43,-17,67,24
-73,-156,-3,-18,-4,-10,-24,-1,74,15
-71,-966,-9,-15,-31,-11,-33,-4,12,-4
-87,-1766,-7,-4,-39,-6,-25,-6,12,-44
-87,-2433,-4,-7,-20,8,6,10,15,-40
-38,-2991,-1,-11,-8,14,22,28,42,3
-1,-3420,9,-10,2,3,33,48,59,60
13,-3420,16,-2,11,1,44,42,75,83
-15,-3111,0,2,-10,-7,21,36,72,62
-58,-2616,-23,-4,-30,-16,-1,38,51,46
-67,-1794,-35,-4,-28,-8,-8,30,40,28
-75,-845,-35,0,-18,4,-9,13,4,16
-75,167,-43,2,-18,5,-9,5,6,9
-66,1306,-41,20,-2,2,-3,-4,23,6
-46,2312,-11,22,-9,6,-18,-15,-9,1
-23,2868,-3,11,-19,5,-31,-18,-7,-5
-10,2911,9,12,-18,5,-21,-23,-41,-20
-2,2672,41,29,-13,9,-12,-15,-18,-20
9,2036,26,31,-7,19,5,-2,-17,-5
10,1166,12,26,-17,16,5,7,-3,-6
26,409,0,20,-16,1,21,29,27,34
80,-800,-44,-7,-81,-28,9,40,111,137
85,-1055,-51,0,-42,-31,34,34,109,113
96,-894,-22,-7,-42,-43,11,16,126,92
92,-530,8,10,-35,-40,-18,-32,70,15
70,70,-50,38,-9,-12,5,-45,-35,-35
68,981,-17,19,-25,-6,-1,-12,-50,-7
61,1941,23,8,-24,-3,0,8,-34,24
0,2983,10,11,-14,12,1,16,-63,-19
-68,4083,-13,-3,-10,26,0,6,-104,-87
-76,4998,4,8,11,20,6,-3,-127,-132
-53,5431,25,27,34,21,29,-13,-108,-129
-103,5439,9,36,22,34,37,-4,-144,-123
-87,5181,20,26,16,20,34,-11,-106,-86
-24,4623,46,29,19,11,46,-5,-17,-23
3,3868,49,40,24,23,59,13,33,-11
37,3030,66,52,42,20,71,17,40,-9
16,2397,67,55,40,12,51,9,4,-8
-7,1825,16,32,0,-10,10,3,39,0
-1,1635,-45,0,-47,-30,-7,10,63,19
3,1782,-36,-17,-61,-26,-8,16,49,12
-12,2153,-35,-20,-56,-23,-19,14,19,-13
23,2825,-48,-18,-51,-26,-30,-6,-25,-41
65,3530,-46,-4,-36,-22,-38,-45,-85,-31
36,4263,-16,3,-28,-17,-5,-48,-69,3
-24,5176,-3,12,-7,0,12,-14,-56,23
29,6712,2,-9,-28,-17,-32,-46,-61,42
13,6555,14,-4,-34,-7,-34,-51,-59,-5
-68,6128,28,19,-15,17,-17,-20,-67,-98
-134,5340,36,30,8,38,26,20,-37,-170
-134,4439,24,41,24,30,38,24,-11,-148
-103,3461,-38,19,6,4,41,43,31,-61
-39,2554,-27,1,-14,-13,58,43,47,13
10,1810,-7,-1,-21,-15,56,35,21,54
33,983,6,-20,-32,-12,45,42,41,49
78,327,43,0,-33,-34,9,28,33,11
49,231,52,28,-4,-32,-10,8,-17,-39
-33,703,23,37,8,-20,3,5,-39,-77
-53,1732,9,19,4,-24,-2,2,-46,-68
-40,2484,9,4,-7,-25,-6,6,-45,-53
-38,3029,-4,-2,0,-10,27,13,-2,-50
-32,3665,-44,-3,21,-8,43,4,10,-42
-21,4151,-1,-10,25,-21,27,-16,16,-46
1,4327,-14,-17,11,-26,3,-19,-18,-48
13,4086,-20,-32,-2,-18,24,-6,-27,-23
24,3608,4,-30,-12,-19,48,-5,4,-11
41,2563,11,-17,-17,-24,48,-4,-24,-10
39,1340,37,5,0,-5,72,-3,-25,2
15,429,52,15,37,7,90,2,-12,28
-6,-322,61,37,71,28,70,-17,-15,41
38,-1047,53,27,36,4,29,16,38,84
109,-1605,29,-12,-18,-10,30,74,87,139
144,-1741,14,-11,2,-11,61,75,84,121
109,-1457,11,-7,20,-13,40,45,71,37
61,-941,-2,-31,-18,-32,-12,-2,-6,-53
6,-420,-8,-36,-52,-38,-53,-18,-47,-70
-38,14,0,-36,-60,-40,-68,-13,-85,-54
-42,518,-10,-36,-50,-21,-52,-31,-120,-23
-49,1015,-20,-20,-36,16,-46,-52,-162,1
-66,1152,-111,-18,-36,29,-47,-58,-210,-1
-78,1133,-187,-21,-45,13,-50,-64,-187,-17
-65,796,-128,-25,-39,14,-40,-63,-127,-19
-40,375,-46,-10,-30,5,-39,-47,-105,-9
6,-636,8,-19,-33,-22,-32,-11,-27,10
39,-1727,39,-23,-26,-20,-12,31,77,43
50,-2877,42,-6,-5,-16,18,66,87,61
53,-4206,42,5,1,-20,38,49,86,61
47,-5248,12,3,2,-28,45,24,72,49
31,-5644,-36,-20,-4,-42,45,12,48,25
35,-5543,-72,-26,4,-60,24,17,97,23
49,-5621,19,-22,22,-64,36,30,148,41
29,-5321,50,-10,35,-48,25,26,131,37
0,-5051,39,-1,16,-33,-8,13,90,30
-21,-4760,15,-12,-14,-29,-33,-8,36,20
-27,-4353,4,-14,-14,-18,-30,-22,-4,2
-22,-3884,1,-22,-23,-15,-29,-23,-28,-6
-8,-4304,-12,-31,-36,-29,-26,-15,-28,-13
-5,-5003,6,-32,-26,-28,-28,-5,-6,-6
10,-5551,28,-20,1,-20,-16,-1,5,-2
33,-6763,38,-15,30,-19,1,6,76,18
47,-8163,39,-21,38,-17,16,0,84,31
59,-9070,21,-22,18,-30,16,-1,27,17
50,-9553,31,-23,9,-46,13,6,33,7
56,-9239,44,-31,22,-40,29,23,64,13
60,-8685,29,-30,25,-45,38,36,45,25
50,-8158,21,-32,16,-42,22,35,33,32
37,-7662,18,-30,28,-25,20,37,53,32
32,-7202,6,-34,42,-22,17,36,74,32
17,-6775,-17,-39,26,-15,18,43,47,26
-5,-6365,-49,-46,15,0,25,45,-6,21
-19,-5967,-57,-64,-6,-11,14,56,4,28
10,-5591,-90,-73,-20,-25,-6,52,6,58
62,-5264,-165,-55,11,-34,-42,36,33,89
52,-4953,-170,-44,32,-29,-39,24,51,78
59,-4643,-147,-29,16,-26,-35,7,33,59
50,-4379,-24,-18,-18,-21,-49,-32,-25,47
-10,-4132,27,5,-22,-18,-47,-23,-23,16
-69,-3889,34,14,0,-14,2,-6,-26,-49
-69,-3656,46,22,10,-14,16,-9,-18,-79
-32,-3448,54,23,8,-17,2,-4,-52,-55
-6,-3232,52,14,9,-18,-6,0,-51,-12
1,-3026,34,14,7,-13,24,4,-38,6
0,-2826,30,6,10,-7,56,16,-16,14
-11,-2514,22,0,8,-3,47,19,-8,23
-21,-1500,6,7,5,-3,43,8,-20,23
-48,224,-8,11,6,-11,28,-11,-28,5
-75,1800,4,10,20,-13,17,-39,8,-24
-63,3352,7,13,30,5,9,-49,4,-20
-33,5316,-9,6,40,34,-16,-44,-39,8
-16,6993,-62,8,55,35,-26,-42,-13,23
-9,7790,-26,32,65,38,4,-52,-18,27
2,8105,40,43,51,41,9,-44,-31,56
6,8194,15,17,13,28,-7,-32,-20,51
-42,7963,-15,0,-6,29,4,-13,-7,15
-61,7353,-14,-4,14,21,37,9,59,-12
-22,6751,-44,2,15,5,28,20,69,0
30,6286,-19,10,-13,-5,-33,0,9,30
62,5982,18,9,-23,-11,-44,-4,0,32
59,6306,38,21,-5,-4,-42,0,-16,36
58,6854,42,23,4,-24,-44,-1,-4,46
27,7373,41,40,22,-17,-39,-17,-31,-6
-37,7618,23,38,38,20,-22,-12,-46,-67
-52,8008,19,28,28,34,-9,-11,-33,-66
-20,8678,30,33,27,27,-27,-40,-18,-66
-18,9111,20,27,18,15,-33,-48,-11,-91
-42,9486,-6,5,0,19,-37,-22,53,-76
-24,9607,1,5,27,44,-24,-8,74,-50
-7,9223,-1,14,14,41,-32,-7,25,-5
18,8615,-8,5,-33,24,-53,-8,6,75
24,7976,-1,11,-16,25,-38,-22,-10,102
-9,6122,-48,34,25,48,9,-12,-1,132
1,5179,-22,31,13,49,25,14,18,135
67,4455,9,23,-5,35,12,19,42,151
66,4065,51,34,11,25,8,21,33,104
-25,3473,72,51,19,62,64,47,32,-83
-126,3149,43,44,7,73,83,50,25,-108
-186,3114,-35,26,-6,66,68,37,-10,-107
-185,3590,-5,6,-7,50,27,11,-37,-108
-152,4248,5,4,8,51,-4,-10,-73,-124
-148,4693,31,14,15,61,-7,-13,-72,-135
-141,4782,18,0,-8,55,-45,-30,-112,-138
-104,4617,-13,-13,-12,54,-45,-25,-123,-118
-62,4260,-56,-16,-20,45,-32,-22,-105,-85
-34,3489,-12,-11,-40,35,-27,-29,-101,-62
-8,2348,-2,-22,-44,21,-21,-23,-62,-35
19,1617,1,-16,-39,12,0,10,35,-13
33,1016,10,-12,-29,19,19,33,72,-3
32,-30,5,-20,-41,1,20,31,36,0
29,-1115,13,-18,-42,-20,21,22,35,10
35,-2052,15,-12,-45,-13,26,15,24,16
54,-2557,35,0,-35,-13,29,0,30,14
48,-2600,40,-2,-31,-14,41,16,18,21
28,-2600,16,-20,-33,-8,29,29,32,19
5,-2492,10,-29,-24,13,29,2,-1,-7
-8,-2172,3,-27,-13,9,14,-24,15,-37
-4,-1664,-5,-30,-19,-15,-10,-30,21,-43
9,-844,-51,-36,-27,-13,-32,-13,56,-25
28,-779,-92,-47,-38,-27,-10,14,82,-5
19,-1661,-90,-59,-38,-44,11,27,78,-9
0,-2308,-34,-54,-23,-23,14,-3,49,-15
16,-3190,24,-37,-20,-18,20,-16,-14,0
45,-4620,30,-45,-38,-29,32,0,-30,29
66,-6417,10,-60,-52,-43,16,-2,-43,40
90,-9784,4,-56,-46,-49,26,-17,-73,57
99,-12963,13,-54,-40,-39,32,-49,-151,108
96,-13200,56,-47,-26,-33,15,-93,-220,85
85,-12423,68,-16,4,-28,12,-119,-189,25
62,-11679,21,8,11,-10,13,-106,-151,-20
-64,-10969,6,-58,-31,-62,0,187,502,-33
-63,-10293,4,-56,-29,-40,12,138,378,-24
-22,-9681,-105,-21,19,5,37,60,230,-46
-40,-9115,-100,-25,5,25,48,38,142,-49
-28,-8578,0,-27,15,5,47,22,102,-34
11,-8059,43,-16,13,-20,18,-27,90,-24
20,-7596,47,-24,14,-18,1,-26,81,-1
34,-7156,0,-29,27,-23,-5,-1,75,10
45,-6737,-73,-30,12,-36,-17,8,53,2
50,-6341,-4,-24,15,-43,-19,15,105,12
43,-5959,28,-23,19,-38,-18,29,112,9
32,-5599,13,-19,8,-24,-43,25,38,28
24,-5260,7,-10,28,-21,-53,13,22,25
6,-4938,2,-9,41,-7,-58,-5,12,-10
-6,-4627,-76,-13,42,2,-54,-13,14,-20
-8,-4340,-88,-15,38,12,-59,-13,9,-20
-18,-4066,-9,-22,9,23,-85,-26,-26,-33
-6,-3817,0,-31,-10,28,-87,-29,-32,-35
1,-3584,3,-11,-7,15,-73,-31,-49,-8
16,-3363,-48,-3,3,-6,-84,-46,-36,3
23,-3160,-63,-7,-1,-5,-71,-33,-25,0
36,-2977,17,-9,-13,4,-38,-4,-29,8
37,-2793,7,-25,-27,17,-10,25,4,6
22,-2623,-11,-20,-25,23,14,50,31,12
-37,-2467,-44,-32,-26,9,13,67,33,37
-36,-2316,-77,-42,-34,3,17,70,34,82
15,-2158,-6,-27,-30,-10,22,28,12,114
33,-2019,43,15,1,-19,30,-12,-23,25
0,-1816,-27,24,6,-8,26,-11,0,-9
-12,-1092,10,9,8,-13,12,-8,16,-35
10,494,-9,17,23,-8,-18,-29,-18,-62
-2,2280,-19,58,44,11,-17,-51,-85,-93
-47,4035,61,62,47,25,-21,-50,-104,-116
-62,5657,46,62,44,48,10,-11,-50,-84
-38,6741,17,61,35,44,-5,-11,-50,-49
-4,7198,6,53,19,24,-32,-21,-30,-30
12,7526,22,44,13,9,-40,-12,-36,-18
27,8076,17,28,9,13,-32,-7,0,-1
27,7877,-20,20,8,21,-1,-4,46,17
32,7049,-61,10,-1,23,15,8,6,20
45,6283,-41,18,-7,26,22,8,-40,2
73,5704,6,11,-5,17,22,4,-11,10
114,5185,16,6,-1,-3,22,14,28,64
121,5090,6,18,-9,-17,30,4,43,91
104,5549,-34,16,-19,-46,-11,-14,32,101
27,6236,-5,25,1,-29,-12,-19,11,58
-79,7345,4,49,42,22,19,-10,-39,-26
-182,8303,0,65,69,63,60,21,-42,-102
-224,9129,-43,15,46,83,86,66,-4,-39
-156,9860,-102,-45,-21,52,38,53,41,120
-44,10228,-73,-75,-113,-34,-97,-41,57,179
-2,10214,46,-44,-127,-84,-197,-161,-99,45
-32,9969,65,-12,-77,-41,-171,-163,-181,1
-66,9555,26,-15,-43,0,-111,-89,-76,165
6,8964,-8,-22,-6,39,-26,11,57,393
87,8360,46,18,28,50,15,40,94,310
174,7783,124,139,68,37,26,37,91,77
227,7314,172,202,100,49,37,21,45,-256
201,6891,185,202,105,80,69,30,-9,-479
191,6527,156,165,70,78,57,31,-32,-382
148,6219,117,141,50,48,59,29,17,-195
27,5932,95,130,67,51,76,29,32,-128
-69,5647,66,111,80,61,68,26,24,-118
-72,5331,57,93,66,77,66,26,-15,-119
-124,5021,60,105,86,94,85,23,-12,-155
-144,4721,20,101,83,87,66,5,33,-137
-123,4439,-53,82,57,67,7,-15,7,-121
-84,4166,-2,59,8,55,-29,-30,-62,-125
-38,3910,26,46,-7,41,-36,-34,-77,-109
-33,3645,21,47,0,49,-13,-18,-75,-87
-10,3363,15,22,-8,45,-4,8,-56,-25
11,2973,10,1,-35,20,4,17,-21,28
-16,2424,17,17,-32,7,32,34,-25,40
-64,1769,-21,14,-34,7,43,44,20,46
-14,1042,-133,-18,-61,-20,16,20,37,84
87,442,-69,-25,-68,-54,-25,-23,-21,89
122,112,18,-5,-55,-43,-40,-40,-65,42
80,-242,20,-8,-41,-24,-12,-15,-45,9
35,-187,11,-35,-39,-12,7,4,-3,-2
-10,493,2,-34,-40,-14,-3,-7,-22,7
-58,1012,7,-17,-20,-5,7,-16,4,30
-134,1121,15,-5,5,26,31,1,22,8
-101,1359,5,0,7,32,15,-16,-32,-6
9,1482,1,-11,-8,24,-17,-47,-45,31
40,1243,-4,-24,-14,6,-40,-56,-44,31
46,81,-11,-53,-36,-30,-68,-83,-67,-12
39,-1862,2,-52,-35,-43,-77,-71,-74,-20
-36,-2930,10,-28,-11,-14,-48,-39,-49,-16
-77,-4043,37,3,18,8,3,-10,0,-39
18,-5998,51,10,24,19,28,42,45,36
59,-6435,-9,12,14,4,24,54,70,56
39,-7137,-17,0,3,7,30,43,67,47
48,-8207,9,-26,-12,-6,22,1,16,-3
102,-8205,-12,-64,-44,-32,-4,-33,-33,-29
14,-7107,3,-69,-34,-20,-18,-42,-22,-51
-99,-7148,7,-44,-7,4,-11,-49,-35,-98
-100,-7707,-11,-42,-2,36,28,-44,-28,-84
-81,-7612,-18,-37,5,33,28,-38,-5,-79
-72,-7045,-9,-37,9,16,3,-20,5,-63
-81,-7382,-54,-48,-13,-3,-21,12,30,-12
-79,-8673,-19,-44,-19,-6,-33,10,45,0
-46,-9185,17,-28,-5,-6,-39,-23,42,-2
-15,-10268,20,-32,4,-23,-50,-30,2,9
12,-11133,20,-40,-20,-40,-41,-15,31,61
29,-10791,29,-43,-34,-44,-20,2,71,104
21,-10156,17,-54,-30,-45,-4,-2,65,113
15,-9551,-19,-60,-42,-48,1,23,89,143
1,-8983,-110,-56,-52,-45,17,37,123,122
35,-8452,-49,-34,-33,-44,28,18,86,58
71,-7933,26,-31,-25,-46,-12,7,51,70
44,-7448,-13,-53,-36,-43,-24,-3,37,80
19,-6994,-22,-53,-38,-45,-34,-28,28,77
6,-6577,-10,-30,-40,-43,-30,-62,3,65
9,-6192,-8,-26,-36,-33,-13,-72,-11,46
-21,-5819,11,-11,-15,-7,8,-53,-51,-25
-66,-5456,6,-8,16,27,22,-22,-18,-56
-26,-5140,10,1,18,1,-4,-19,26,5
9,-4840,18,3,21,-17,-29,-39,1,44
26,-4546,43,14,21,-26,-29,-55,-49,28
13,-4276,46,3,9,-27,-17,-23,-18,33
26,-4034,19,-11,0,-28,-5,2,-10,59
65,-3803,17,-4,6,-21,13,5,-9,97
73,-3578,1,11,8,-34,35,3,11,107
34,-3359,-6,27,14,-34,66,19,19,82
-11,-3144,13,35,22,-19,67,31,16,61
-25,-2949,-11,23,23,-18,46,27,-3,51
-37,-2765,-28,-2,16,-12,43,21,-15,57
-17,-2593,-53,-19,2,-16,49,30,23,84
-14,-2423,-72,-27,-3,-29,43,36,37,112
-24,-2233,-61,-29,3,-27,36,39,55,135
-1,-1849,-73,-34,4,-22,1,38,51,140
-15,-700,-119,-43,-3,0,3,61,30,129
18,-264,-131,-56,-14,6,26,59,40,172
48,-1387,-81,-34,-8,-19,-9,10,7,159
-26,-1176,-4,35,26,-8,-23,-30,-62,-24
-41,-1049,7,50,20,-19,-49,-58,-90,-86
23,-1304,60,37,9,-32,-51,-48,-71,-31
36,-1386,79,47,15,-3,-28,-19,-52,-22
-4,-1170,100,55,24,32,12,1,-47,-37
-29,245,13,46,11,30,54,41,15,-16
-12,1731,-36,27,12,12,56,65,45,19
12,3078,60,89,62,37,48,19,-3,-13
28,4685,46,82,73,40,18,-8,58,95
44,6317,-94,-32,-17,-22,-32,14,190,409
108,8161,-86,-55,-53,-59,-74,-20,167,550
202,9852,0,28,-13,-31,-76,-55,35,449
131,11052,-86,26,4,35,9,20,23,372
-89,11681,-118,-27,-9,71,31,50,17,238
-111,12417,-108,-42,-47,52,-30,-5,-44,18
-77,12432,1,21,-23,79,-16,-4,-76,-315
-137,11660,54,50,24,119,47,37,-50,-627
-154,10339,38,39,58,128,72,60,-50,-568
-66,9494,84,65,78,89,27,25,-34,-344
58,8708,143,137,102,48,-11,-40,-43,-219
125,8418,176,242,179,28,-24,-97,-87,-160
262,8207,115,239,187,3,-49,-93,-49,126
414,7612,-4,138,139,-20,-46,-55,78,410
458,6808,0,84,130,-17,-30,-59,68,339
303,6242,52,36,78,18,14,-51,15,195
-1,6016,5,-49,-39,37,25,-30,4,105
-296,5604,-34,-58,-99,18,27,-53,-34,29
-349,5701,29,39,-64,33,60,-52,0,-33
-227,6140,139,88,-116,14,-19,-73,-38,-241
-165,6009,150,45,-110,-10,-60,-92,-76,-505
-213,5432,27,-28,-101,30,-27,-31,-50,-514
-125,5051,-71,-78,-129,1,-62,-31,-23,-248
4,4783,-93,-59,-112,8,-60,-7,37,-15
10,4173,-50,-18,-58,47,-13,27,48,47
96,2451,66,39,-31,22,-50,-33,-56,-14
43,363,199,145,-10,27,-45,-79,-162,-220
-94,-1812,191,191,-2,71,10,-40,-152,-363
-29,-3780,126,136,-42,54,17,5,-90,-304
71,-7798,91,56,-74,20,21,47,-19,-206
129,-11231,4,-46,-85,-8,30,74,0,-100
105,-12210,-52,-100,-90,-31,5,67,34,29
19,-11959,-43,-72,-31,1,9,58,8,13
-8,-11281,-5,-31,0,34,34,30,-65,0
71,-10619,47,-10,-45,1,-18,-23,-75,59
115,-10022,-26,-40,-76,6,-6,2,-11,74
78,-9432,-24,-29,-47,54,26,38,-22,-1
-113,-8868,35,6,-4,70,15,25,-58,-147
-220,-8316,-7,-37,-9,42,-25,-10,-101,-185
-139,-7819,-34,-51,-12,36,-23,-8,-83,-89
-60,-7376,-36,-42,-25,20,-12,13,10,60
-64,-6941,14,-4,-28,-20,-45,-24,-11,69
-51,-6531,96,64,-14,-10,-39,-43,-73,-35
63,-6152,89,41,-41,-19,-17,8,-16,-36
116,-5786,62,-12,-73,-39,-26,37,33,24
49,-5442,39,-12,-56,-18,-7,63,65,40
-18,-5121,3,-33,-19,22,46,56,55,51
-43,-4825,-49,-81,19,66,104,34,17,34
-77,-4551,-47,-80,39,70,91,-8,-82,-33
-78,-4271,-21,-56,39,53,43,8,-115,-12
-56,-4018,8,-9,52,51,21,17,-102,14
-80,-3770,28,17,57,67,20,28,-88,-40
-112,-3542,13,-3,55,73,43,51,-60,-109
-147,-3329,-24,-18,34,68,68,57,-40,-123
-140,-3130,-76,-53,0,50,42,46,-13,-41
-127,-2944,-77,-54,-19,22,-4,27,7,-7
-202,-2767,7,19,20,54,32,64,-68,-200
-197,-2597,44,71,45,86,93,86,-101,-246
-39,-2442,20,46,-8,29,28,34,-55,-5
-31,-2298,-10,13,-10,4,-4,20,-50,44
-101,-2170,-27,-24,4,46,45,75,-24,-11
-51,-2046,-13,-41,-15,22,28,93,16,21
65,-1916,12,-15,-44,-52,-62,37,-33,42
50,-1794,-49,-25,-37,-47,-66,37,-42,37
105,-1686,-75,-38,-41,-31,-80,29,12,134
143,-1588,76,8,8,45,-50,1,-75,113
75,-1483,-9,-24,-4,45,-35,39,-31,143
86,-1405,-94,-71,-26,20,-54,16,-21,207
101,-1323,-47,-61,-14,-13,-80,-22,-51,200
76,-1241,-50,-94,-48,-22,-85,24,20,268
90,-1175,-134,-166,-81,1,-41,97,97,386
150,-1097,-75,-119,-28,31,-31,40,6,410
173,-1032,90,-9,22,23,-79,-23,-87,293
104,-966,108,17,25,37,-76,29,-46,156
93,-906,24,-30,-14,36,-53,92,29,89
135,-846,77,-13,-29,2,-83,63,-1,-168
90,-799,193,63,20,22,-76,26,-99,-485
18,-770,189,74,34,53,-43,4,-114,-500
21,-723,168,48,19,27,-39,-7,-113,-363
37,-678,130,24,23,19,-16,74,-27,-236
4,-636,130,57,64,51,-26,72,-13,-118
20,-601,119,71,90,53,-54,15,-78,88
45,-563,-25,0,41,15,-81,26,-29,310
64,-532,-130,-25,-7,-13,-122,17,10,270
29,-491,-102,-32,1,-2,-119,14,0,81
-23,-460,12,-11,32,24,-119,-18,-103,-124
-91,-452,109,58,81,49,-126,-58,-216,-292
-146,-416,114,88,97,78,-86,-35,-192,-283
-153,-382,4,51,67,77,-61,16,-106,-199
-64,-367,-71,-44,1,41,-36,121,52,-15
64,-348,-82,-66,10,58,-3,176,122,191
204,-322,-4,10,75,89,-10,86,18,272
335,-301,138,77,89,36,-56,-21,-87,184
279,-278,131,44,24,-27,-55,31,11,105
88,-259,-59,-5,-3,-28,-31,94,75,136
-36,-252,-32,-1,32,-4,-17,60,-43,60
-18,-250,69,13,32,-27,-24,27,-87,-60
106,-221,155,51,40,-51,-90,-52,-107,-41
139,-216,181,91,83,-11,-75,-83,-108,21
41,-200,102,74,55,-5,-70,-51,-60,90
-218,-179,-49,4,-2,12,-75,11,15,72
-271,-174,-85,-77,-34,26,-65,82,88,86
-192,-168,-36,-57,-16,39,-44,59,49,-21
-113,-162,30,-22,23,51,-66,2,-3,-153
-60,-132,87,19,46,67,-84,0,-53,-129
-10,-124,69,17,65,92,-34,33,-115,-100
73,-127,-16,-71,7,25,-49,58,-20,122
58,-117,-90,-115,11,-8,-83,59,66,288
38,-137,-68,-33,112,28,-60,41,-10,135
-71,-115,-57,36,154,53,20,125,15,-37
-49,-105,-6,75,149,24,-6,110,45,-14
36,-86,152,142,188,74,-7,-6,-161,-89
126,-80,212,121,84,68,28,-31,-207,-123
34,-88,87,97,-20,58,62,38,-77,-134
-63,-78,-18,69,-57,113,138,177,142,65
10,-78,-73,9,-121,125,146,212,222,309
202,-64,12,59,-82,70,5,39,9,190
-69,-66,83,74,0,158,103,172,56,-72
-192,-68,70,-3,-10,183,146,227,100,-23
41,-49,203,9,-88,6,-81,-6,-20,203
-104,-42,199,-4,-79,0,-51,17,39,177
-36,-34,167,-27,-74,22,-38,9,29,166
-48,-35,193,20,-35,76,0,0,-37,27
-152,-39,163,33,6,134,57,58,-7,-89
223,-54,192,88,98,139,82,54,-83,-98
228,-53,221,119,114,144,99,78,-73,-101
265,-37,206,100,95,143,107,83,-64,-23
477,-34,218,66,25,63,22,18,-59,163
424,-29,223,71,26,43,-3,8,-31,219
238,-32,154,32,26,75,70,76,74,286
-34,-39,-18,-22,-7,84,136,175,188,282
-176,-54,-320,-149,-98,27,101,222,251,369
-18,-48,-284,-130,-55,32,88,144,162,583
88,-53,-43,-22,23,46,89,70,80,603
4,-44,-54,-44,14,43,125,131,136,531
-69,-42,-72,-49,11,55,91,99,42,202
-166,-40,-107,-100,6,99,163,198,137,-160
-77,-26,7,-18,30,101,129,113,23,-419
-23,-30,306,199,114,30,-26,-136,-271,-680
-150,-24,264,233,141,65,27,-68,-189,-578
-149,-20,133,145,108,80,110,48,-17,-348
3,-31,67,62,22,1,77,59,144,-140
33,-20,169,129,78,11,24,-25,6,-193
-107,-22,143,132,143,114,167,104,11,-267
-71,-23,-56,-49,9,55,223,255,219,-12
24,-27,-100,-88,-30,-29,149,156,131,67
-95,-33,17,51,94,-28,145,17,-101,-160
-61,-29,148,140,149,-117,34,-164,-307,-300
9,-28,194,146,140,-174,-31,-197,-282,-290
-153,-22,65,116,128,-108,58,-31,-92,-290
-232,-16,-53,69,105,-94,110,2,-49,-274
-249,-23,-140,-22,41,-143,123,6,-27,-186
-267,-19,-336,-153,-35,-155,140,123,69,-50
-171,-16,-366,-231,-80,-155,155,165,149,62
-25,-13,-125,-120,-27,-162,86,-13,-17,-32
47,-7,60,-23,-12,-191,-23,-137,-111,-61
40,-3,114,-9,-24,-232,-87,-154,-75,-12
-134,-3,-61,-89,17,-98,127,48,81,7
-31,-13,-204,-218,-69,-122,188,119,170,195
166,-23,-54,-181,-137,-286,16,-49,68,201
139,-21,90,-65,-61,-267,-4,-105,-11,95
87,-20,11,-34,-20,-184,46,-44,52,172
97,-15,-133,-54,-30,-159,42,-18,70,160
169,-20,-111,-33,9,-117,61,-32,5,86
310,-17,127,52,37,-142,-31,-159,-114,59
256,-5,62,0,-5,-176,-33,-96,-11,85
171,-5,-173,-169,-93,-203,32,48,195,251
197,-12,-158,-142,-42,-151,57,-8,90,233
154,-13,52,3,51,-124,-6,-179,-121,-17
-71,-22,36,24,70,-101,31,-171,-131,-169
-117,-24,-241,-92,-4,-116,47,-66,47,0
-116,-16,-215,-74,4,-107,-6,-119,14,34
-257,-9,-70,5,95,6,37,-136,-108,-85
-369,-5,-245,-59,109,101,205,40,8,-54
-15,-5,-200,-94,5,-51,54,-49,21,154
185,-17,109,16,1,-144,-114,-184,-16,227
50,-30,158,83,73,-43,10,-78,70,143
-88,-27,42,64,114,71,137,43,95,62
-151,-16,29,67,114,65,110,15,21,-69
-219,-12,22,65,96,23,71,-27,-2,-165
-139,-11,15,71,80,15,52,-15,32,-83
-60,-8,-4,57,58,34,48,-28,31,-10
44,-9,-6,40,23,20,2,-82,15,98
48,-9,102,107,55,47,11,-97,-27,48
-115,-9,27,55,53,116,94,23,44,-17
-108,-16,-221,-122,-45,99,133,129,226,185
63,-21,151,130,77,44,-101,-208,-157,-52
-28,-11,189,208,152,134,-21,-138,-133,-118
191,-12,259,190,99,20,-135,-217,-116,5
270,-3,228,163,72,-14,-124,-189,-70,99
292,-5,154,123,59,0,-52,-127,27,243
379,-8,143,105,36,-8,-38,-88,70,315
463,-12,176,93,17,-39,-61,-106,36,311
392,-28,135,52,12,-51,-66,-102,24,250
-34,-27,-7,37,54,51,44,-28,-4,18
-267,-19,-170,-25,22,82,104,40,41,-42
-140,-15,-176,-63,-40,29,34,52,150,78
-108,-22,-48,46,81,137,81,39,79,-41
-2,-21,40,90,88,103,-3,-79,-65,-56
86,-2,-30,5,5,24,-73,-96,-22,184
201,2,-15,-14,-43,-45,-137,-70,59,348
78,16,-160,-78,-71,-19,-41,60,200,331
-54,8,-261,-98,-75,-7,-9,21,95,128
-170,4,-114,19,-13,-7,-37,-91,-95,-148
-116,17,48,126,53,8,-77,-204,-196,-176
148,10,206,195,46,-45,-162,-319,-272,-63
6,19,144,183,54,10,20,-181,-126,-79
-220,13,16,121,46,42,73,-89,-16,-21
-267,5,-146,8,-43,-11,21,-64,1,37
-50,6,-149,-35,-101,-54,-18,-74,17,70
173,1,28,67,-16,3,12,-86,-32,0
206,-6,-30,37,-14,41,87,38,94,107
144,-5,-222,-54,-47,63,137,136,225,264
138,5,-150,0,12,101,130,85,126,224
-18,10,11,121,108,167,137,64,90,104
-282,13,30,113,144,228,219,180,203,128
-382,7,-119,6,60,155,139,147,170,89
-12,-3,42,61,9,19,-158,-227,-242,-152
34,-11,278,196,41,64,-210,-274,-276,-262
-276,2,232,193,67,140,-107,-100,-94,-295
-404,16,56,108,39,128,-12,28,4,-300
-448,12,-164,-30,-43,73,47,106,78,-305
-334,8,-93,48,41,125,30,23,-22,-308
-58,-2,145,205,116,136,-39,-102,-152,-218
-55,0,177,213,92,119,-25,-80,-153,-178
-60,18,120,153,58,83,6,-54,-113,-59
-64,14,24,74,20,62,48,-18,-44,81
-98,-1,-41,37,-23,59,67,21,6,158
-149,6,-97,19,-44,59,96,40,31,99
-91,5,-159,-44,-101,-10,38,19,49,91
109,6,-53,8,-141,-142,-164,-157,-72,91
84,9,6,41,-110,-98,-147,-109,-17,19
-7,10,-194,-81,-123,9,25,132,199,55
267,6,-391,-220,-196,-22,49,214,378,427
637,-3,-152,-104,-162,-113,-136,-49,172,548
451,-2,131,74,-58,-113,-209,-196,-44,237
-148,0,-84,57,42,124,79,61,42,60
-26,8,0,71,17,95,-19,-78,-151,46
-36,14,269,194,67,35,-125,-233,-317,-270
-181,4,220,194,110,90,-35,-151,-271,-374
-186,-7,91,111,55,67,1,-93,-181,-232
-279,0,7,56,24,52,25,-39,-94,-160
-288,-10,-48,11,-2,30,49,23,58,-101
-200,-8,-58,-8,-27,6,47,68,206,-16
-98,-4,-75,-8,-30,20,82,95,219,68
-82,2,-194,-95,-81,13,139,191,298,167
-127,8,-392,-204,-150,-41,128,269,463,265
-66,9,-258,-54,-39,16,64,89,194,128
128,0,85,123,66,43,-22,-117,-110,-38
240,-4,231,142,20,-53,-154,-215,-194,-95
191,3,145,101,-10,-45,-131,-150,-122,-58
236,6,-17,1,-76,-40,-88,-50,22,94
230,2,-234,-138,-147,-48,-37,85,217,306
187,6,-211,-135,-156,-102,-105,-9,122,291
22,10,46,37,-44,-112,-167,-157,-117,-45
-190,3,1,47,11,-35,-37,-24,-31,-105
-25,5,1,58,-9,-75,-56,-48,-41,-3
57,4,-23,37,-22,-111,-55,-45,-43,28
14,16,2,9,-29,-109,-54,-52,-67,-51
4,13,1,33,5,-79,-35,-45,-82,-72
-93,8,-191,-91,-34,-42,74,152,128,93
-264,10,-494,-283,-126,-16,207,364,390,236
-130,17,-360,-188,-84,-41,104,177,152,154
-46,8,-83,8,30,-27,-18,-56,-151,-59
-151,9,-94,-8,19,-39,-15,-29,-85,-64
96,9,92,65,-4,-164,-202,-245,-285,-55
215,-4,158,88,1,-147,-151,-196,-216,1
337,2,33,-18,-88,-183,-152,-133,-103,124
370,-12,97,21,-60,-198,-225,-238,-161,56
134,-5,110,81,20,-121,-141,-217,-111,-127
16,3,40,56,39,-65,-43,-112,25,-20
33,4,-15,21,33,-38,19,-11,135,184
63,3,-1,-10,-43,-128,-51,-45,145,184
-44,2,-32,-59,-81,-170,-74,-55,151,66
-140,-5,-141,-102,-67,-89,47,80,207,90
-223,-11,-264,-156,-63,-19,163,214,268,116
-134,-7,-255,-149,-47,-49,110,120,156,90
89,1,-178,-104,-32,-76,46,25,66,154
17,1,-56,-18,13,-69,23,-35,-31,17
-225,-13,-42,34,74,15,131,30,-29,-145
-67,2,1,18,-5,-85,5,-104,-100,-80
-113,3,82,63,-2,-102,-52,-170,-147,-121
-257,7,-38,9,16,-13,74,-3,-16,-116
-303,2,-143,-36,-2,16,126,63,-12,-165
-241,-8,-142,-35,-17,-12,70,37,-40,-110
-150,-3,-264,-127,-43,-9,82,121,69,38
128,3,-86,-66,-47,-95,-85,-59,-130,-14
233,2,163,58,-14,-166,-213,-238,-303,-89
112,7,134,65,2,-132,-135,-170,-211,-62
1,5,15,-10,-26,-114,-56,-75,-126,-33
-7,0,-44,-42,-60,-118,-30,-41,-72,33
26,10,-120,-100,-97,-100,-27,-16,-34,170
134,10,-287,-201,-136,-49,12,74,93,402
256,3,-263,-211,-144,-38,-9,58,73,454
368,7,-33,-114,-134,-136,-141,-98,-112,331
253,-6,11,-64,-105,-167,-170,-162,-216,250
55,1,-126,-96,-73,-81,-37,-17,-65,259
37,10,-193,-145,-83,-33,21,122,230,235
117,6,-164,-133,-72,1,36,164,408,214
178,1,-78,-57,-34,-6,-10,8,134,93
171,-2,168,94,8,-106,-182,-224,-173,-74
-210,-12,57,112,50,-6,-22,18,14,-272
-231,-2,-52,102,85,84,68,89,47,-396
-270,2,2,98,98,106,65,69,71,-362
-289,4,11,26,31,32,18,40,71,-203
-246,12,-229,-171,-125,-78,2,98,160,21
-74,14,-331,-263,-209,-142,-36,72,140,100
195,17,57,-21,-30,-82,-108,-136,-143,-34
193,3,212,130,88,18,-72,-141,-166,-68
50,0,31,33,45,72,44,41,23,18
-64,6,-243,-128,23,140,211,229,198,120
211,5,-65,-94,-45,-51,-29,-36,10,127
141,8,171,55,-15,-141,-173,-215,-247,-168
-49,0,-94,-136,-141,-135,-48,54,102,16
-9,-2,-330,-275,-190,-100,34,192,332,333
95,5,-52,-5,71,72,20,-78,-180,24
83,9,197,123,136,31,-81,-208,-285,-172
41,16,184,82,75,-44,-115,-212,-267,-136
-80,11,113,63,59,-12,-71,-180,-343,-115
-289,10,28,24,63,57,26,-46,-198,-65
-364,-9,-54,2,68,103,98,52,-129,-8
-275,5,-172,-97,4,31,69,79,-89,12
-221,19,-212,-130,-52,-54,-16,57,3,-56
-70,12,-159,-129,-91,-114,-124,3,139,-22
51,10,-137,-148,-101,-71,-66,144,343,12
12,7,-109,-111,-40,19,52,278,434,-80
119,19,106,-16,-48,-97,-127,51,297,-127
192,6,169,34,-35,-156,-251,-104,155,-133
214,10,-62,-63,-72,-104,-126,59,268,138
222,8,-343,-247,-157,-76,-6,234,448,509
388,20,-293,-276,-199,-128,-56,177,265,531
239,22,110,28,-9,-35,-90,-72,-305,132
-255,26,176,168,168,151,63,-26,-532,13
-379,29,-17,46,119,145,83,29,-492,163
-134,47,8,-9,21,12,-49,-127,-651,76
-92,60,-7,2,-1,-17,-92,-192,-790,-231
-208,66,-29,-9,-18,-45,-152,-245,-710,-527
-342,87,15,3,-36,-81,-177,-145,-220,-627
-284,101,13,0,-30,-63,-116,147,612,-377
-210,127,41,65,77,62,21,324,894,-137
-236,524,-144,-2,97,189,203,473,907,21
67,3042,-168,-48,64,229,190,421,785,177
288,5420,24,-2,32,144,45,202,510,224
287,7306,40,-50,-66,-21,-56,103,439,352
279,10076,138,52,-31,-118,-166,-108,169,141
-136,18369,69,125,59,65,-8,78,95,-202
-82,18261,-54,-15,-56,6,-55,99,104,-122
68,17247,-27,-35,-74,-34,-101,-11,-39,-55
179,16223,21,-42,-87,-79,-135,-20,113,85
60,15252,19,-8,-20,-2,-46,94,353,37
-160,14347,-6,30,44,132,98,239,348,-134
-95,13496,-77,-45,-6,89,91,261,298,-53
67,12686,-84,-111,-107,-62,-62,104,211,172
62,11924,-54,-75,-96,-81,-108,-18,-14,226
286,11210,164,61,-61,-158,-243,-303,-378,73
114,10539,177,156,64,-40,-94,-254,-380,-86
0,9907,197,204,161,93,58,-107,-234,-147
149,9311,223,175,131,66,40,-37,-130,-159
428,8762,234,96,45,-19,-21,-47,-122,-69
734,8239,189,-1,-44,-67,6,58,188,215
584,7735,-126,-209,-164,-70,119,263,504,457
-130,7270,-352,-232,-99,12,209,250,251,141
-491,6831,-183,-61,10,17,111,53,-98,-96
-283,6420,51,35,11,-84,-49,-93,-140,203
-286,6042,208,133,84,-64,-84,-166,-192,142
-391,5677,129,102,95,0,-2,-82,-136,-59
-272,5334,-8,-15,7,-20,31,-4,-43,-99
132,5018,27,-55,-60,-111,-54,-52,-16,-60
191,4719,130,9,-12,-99,-80,-101,32,-75
-84,4447,24,3,32,-10,27,-24,3,-219
-279,4174,-39,0,52,39,114,2,-164,-412
-394,3922,-140,-70,25,36,170,43,-186,-441
-349,3693,-145,-95,-8,-2,145,22,-152,-339
-201,3461,-79,-35,30,24,151,12,-141,-231
-58,3246,-133,-39,2,-21,122,2,-87,-142
-130,3065,-248,-79,32,51,243,107,58,-106
-51,2878,-227,-76,16,14,203,67,61,-131
70,2699,41,-2,-31,-141,-8,-70,88,-116
142,2536,101,-12,-39,-145,-1,-48,105,77
184,2382,-62,-153,-151,-199,-13,-40,16,224
66,2247,-334,-254,-146,-116,118,105,90,281
228,2114,-295,-155,-51,-84,82,-43,-93,222
415,1976,161,82,47,-138,-136,-365,-406,-16
468,1868,153,36,-21,-179,-165,-295,-207,70
697,1765,-82,-196,-233,-327,-220,-169,181,363
637,1645,-370,-309,-271,-276,-92,-34,296,346
613,1541,50,-6,-62,-162,-39,-161,-150,-59
501,1454,345,244,119,-111,-51,-262,-390,-254
18,1363,74,71,67,-91,28,-136,-220,-22
-658,1277,-119,-53,54,-30,153,3,-76,-153
-940,1203,-130,-22,134,90,313,148,10,-440
-794,1132,-7,62,174,112,286,117,-47,-554
-659,1059,61,108,175,85,239,91,-26,-513
-495,999,-94,-7,96,53,265,161,103,-312
-326,939,-468,-277,-76,13,318,338,403,128
-208,878,-533,-372,-145,-58,223,287,343,165
283,830,253,109,14,-209,-194,-299,-263,-176
281,777,200,75,13,-191,-134,-207,-168,1
129,730,37,-47,-34,-181,-88,-122,-98,66
0,695,-64,-111,-65,-174,-84,-98,-122,51
-220,651,-105,-112,-29,-86,14,-60,-225,-177
-291,606,-81,-82,-3,-44,73,-38,-309,-340
-17,567,57,-41,-18,-80,6,-104,-375,-214
181,527,56,-27,-31,-100,-23,-80,-256,-16
103,500,-88,-36,-15,-100,-6,-30,-123,11
-11,473,-147,-101,-49,-98,32,3,-72,-9
-112,449,-186,-145,-80,-86,51,54,63,16
-193,424,-225,-188,-93,-69,97,181,281,166
-251,385,-262,-212,-84,-27,153,245,343,282
-152,355,-16,-62,-25,-61,5,-35,-148,109
-172,339,13,-43,-3,-23,32,-71,-282,120
-138,321,-246,-223,-88,0,147,79,-103,346
239,299,-106,-199,-180,-175,-99,-114,-132,332
399,282,248,53,-35,-158,-213,-275,-171,44
411,275,283,116,41,-55,-110,-191,12,41
432,248,126,13,-25,-45,-62,-123,99,175
373,231,101,0,-25,-20,-9,-111,-28,125
134,216,109,53,56,60,62,-108,-232,28
29,207,84,66,76,87,44,-54,-198,37
41,200,64,14,25,44,18,185,219,77
-13,190,-27,-42,19,96,144,445,521,67
139,178,-84,-115,-42,69,144,397,591,170
263,164,-310,-326,-197,-12,154,410,926,544
211,164,-395,-317,-111,89,241,329,790,514
236,149,194,125,155,125,61,-76,94,-103
169,135,494,361,206,19,-97,-165,66,-305
24,136,364,262,166,65,4,-37,163,-193
-163,124,244,180,164,151,151,21,115,-287
-305,112,172,145,149,173,184,32,104,-460
-355,114,112,111,132,173,137,24,105,-419
-484,113,-32,43,127,213,179,101,130,-346
-338,103,-33,1,63,154,135,73,92,-327
-204,90,53,43,56,90,58,-49,7,-325
-193,83,-37,20,85,178,182,10,68,-197
67,77,-110,-64,12,143,131,0,72,-14
276,77,133,18,-10,4,-63,-159,-97,-84
22,81,301,146,63,15,-96,-187,-182,-335
-247,73,251,178,139,103,-22,-143,-180,-426
-301,64,86,73,86,113,32,-105,-43,-257
-207,55,73,48,52,100,71,-55,107,-149
-93,53,-18,-4,44,144,186,113,299,-9
2,49,-111,-50,45,183,240,176,251,-11
211,46,21,-25,-48,1,-8,-2,144,-1
179,35,122,31,-32,-35,-102,-40,182,40
-30,29,42,-11,-31,14,-17,26,224,93
-236,30,-281,-211,-129,48,158,213,346,158
84,38,-148,-165,-123,-18,19,33,154,144
536,38,303,105,17,-21,-176,-286,-134,76
267,39,293,138,93,82,-77,-206,-130,-28
-117,30,147,62,60,77,-59,-157,-161,-130
-85,29,11,38,48,45,-103,-215,-267,-166
191,23,-57,30,59,68,-102,-213,-292,-98
345,21,11,15,45,99,-37,-138,-215,45
104,24,59,30,34,87,-39,-139,-308,-70
-157,21,86,56,66,88,-3,-116,-324,-189
-210,17,67,29,64,102,88,-10,-139,-40
-255,22,-128,-105,-21,89,172,169,211,191
-161,23,-326,-210,-34,140,281,358,475,392
76,16,-61,-40,17,54,61,104,187,262
121,9,228,149,49,-45,-128,-96,-33,4
21,12,61,26,-9,-41,-57,44,134,29
91,9,-97,-105,-63,-29,-5,119,206,171
4,12,-7,-51,6,20,11,56,38,-31
-167,19,134,68,108,86,24,-11,-125,-327
-178,17,148,82,97,75,0,-55,-174,-330
0,12,75,-14,6,-9,-85,-99,-169,-128
66,11,-23,-74,-44,-44,-115,-51,-100,38
38,11,-82,-66,-18,-15,-69,13,-48,95
44,9,-93,-50,5,-10,-77,-23,-117,4
52,9,-63,-85,-42,-78,-148,-75,-137,24
52,2,-91,-96,-28,-28,-66,23,-64,84
195,-2,-17,-76,-65,-98,-125,-23,-75,133
72,-1,55,-62,-85,-160,-164,-71,-135,7
-138,-2,-15,-44,-8,-36,-8,54,-111,-158
-82,-4,-1,45,57,16,0,54,-96,-155
-17,-7,64,66,57,11,-27,59,-67,-125
-57,3,122,69,66,15,-35,27,-121,-217
109,0,93,39,21,-69,-104,-18,-126,-176
57,3,13,-12,-28,-107,-124,-9,-91,-105
-240,3,-172,-69,-35,-54,-37,76,-11,-48
-154,-7,-349,-147,-90,-22,19,151,62,149
52,-12,-224,-151,-97,-47,-38,69,15,205
-139,-5,-79,-37,53,49,-7,45,-46,48
-162,-2,-25,11,98,70,-15,48,-42,9
-55,-7,-161,-86,-7,17,-10,92,38,78
83,-10,-48,6,-34,-104,-158,-103,-189,-129
-51,-13,30,77,20,-102,-147,-139,-205,-243
-109,-5,29,39,36,-39,-53,-54,-184,-190
22,-3,58,7,20,-44,-53,-56,-279,-89
220,-9,42,2,-8,-87,-96,-105,-332,110
384,-8,53,-28,-70,-159,-148,-134,-328,206
201,-1,121,-11,-55,-138,-119,-136,-399,45
-115,2,63,7,-1,-36,-13,-61,-346,-113
-37,3,14,-2,-3,-22,-8,6,12,-47
147,-6,63,5,-13,-63,-63,13,156,-46
182,-8,24,-27,-38,-72,-73,-13,9,-101
191,-5,-16,-100,-88,-117,-125,-65,-87,-79
109,0,-142,-252,-134,-138,-93,51,166,112
0,-2,-381,-431,-164,-119,2,227,475,367
151,3,-231,-310,-131,-144,-120,79,260,408
271,9,2,-91,-48,-140,-228,-29,21,499
275,3,-71,-146,-53,-64,-104,150,167,705
194,0,-269,-272,-68,3,30,204,159,621
293,0,108,-31,50,-12,-126,-194,-352,101
-46,-2,440,228,178,25,-150,-288,-487,-498
-390,-1,238,148,140,88,0,-47,-142,-570
-167,-6,183,112,80,47,-43,-31,46,-421
43,-11,176,114,70,19,-63,-20,154,-291
-186,-17,48,86,110,118,72,109,143,-350
-288,-21,-105,-5,63,146,141,200,164,-202
-45,-26,-69,-22,-1,49,-14,16,2,2
-68,-9,14,43,32,41,-75,-96,-155,-73
-121,0,116,87,59,67,-52,-81,-181,-129
-34,-7,149,103,52,59,-89,-93,-105,-105
94,-11,112,58,1,37,-80,-38,60,5
36,-7,-34,-19,-23,86,17,90,141,92
-140,-14,-212,-117,-45,108,72,156,258,153
-75,-15,-60,-50,-66,9,-60,-10,143,180
-92,-50,-259,-141,-67,122,169,259,303,183
34,-72,-13,50,21,75,17,41,-11,-32
113,-213,275,293,148,98,-80,-109,-230,-137
97,-618,369,267,114,66,-78,-59,-198,-114
60,-1421,211,141,42,41,-44,6,-115,-70
14,-2518,160,129,50,72,1,-14,-155,-202
-82,-2941,102,146,106,159,97,25,-114,-275
-107,-3185,81,128,103,162,99,29,-58,-186
-9,-2826,135,102,41,84,24,-16,-23,-116
-92,-2382,69,58,15,77,11,15,90,-79
-225,-1634,8,26,21,105,-6,30,70,-94
-250,-751,-10,12,21,106,-19,18,-40,-86
-194,-91,-25,2,-3,104,-6,39,-42,6
43,429,4,-6,-62,44,-62,-11,-51,92
95,637,-84,-89,-113,12,-39,79,87,124
-88,547,-395,-262,-159,86,130,311,362,226
-126,356,-616,-378,-164,132,232,378,430,425
118,-59,-343,-219,-97,84,96,160,161,406
179,-445,364,203,81,-16,-209,-280,-387,-125
-60,-1357,617,377,199,22,-187,-339,-549,-515
-21,-2104,397,224,101,5,-133,-228,-332,-382
94,-3001,193,107,22,-5,-91,-105,8,-129
-25,-3494,93,78,20,27,7,0,93,-89
-98,-3477,46,67,17,42,10,0,-9,-169
-38,-3738,49,33,-7,13,-48,-34,-31,-215
15,-2984,57,13,-28,-2,-55,-2,10,-143
31,-1813,23,-21,-57,-11,-66,4,-18,-34
65,-1595,26,-21,-44,-1,-70,10,-47,46
72,-707,39,-1,-21,33,-57,-13,-103,44
2,-193,-21,-15,-36,13,-64,-42,-139,2
-196,297,-150,-74,-68,17,-27,51,48,-29
-153,444,-192,-86,-55,58,41,107,193,57
83,649,-68,-21,-33,37,18,13,87,139
212,619,41,21,-50,-28,-37,-60,-34,147
358,452,73,21,-74,-45,-39,-26,-18,193
476,371,49,20,-65,-49,-29,-27,-74,177
529,382,0,25,-32,-6,0,-22,-126,185
427,416,70,17,-54,-30,-21,21,93,195
274,435,41,-14,-93,-75,-22,123,445,253
273,920,-168,-140,-134,-45,74,243,594,428
213,1488,-385,-252,-135,48,202,293,443,420
96,1839,-17,-26,-45,-17,9,-39,-142,-80
-106,1924,328,200,42,-107,-194,-320,-444,-384
-435,1850,147,151,91,19,-17,-96,-226,-320
-517,1750,-11,59,75,71,66,31,-85,-219
-476,1654,-44,32,77,90,83,68,10,-209
-377,1553,-44,22,52,67,66,89,94,-221
-132,1470,-49,-6,1,2,6,42,53,-128
140,1370,93,55,2,-57,-94,-99,-101,-48
104,1273,4,-12,-40,-64,-52,-50,-42,59
-274,1195,-342,-186,-97,4,152,232,232,63
-325,1127,-348,-146,-53,27,168,186,30,-150
-55,1051,-12,10,21,-21,2,-44,-293,-245
12,984,43,44,53,0,7,-82,-346,-179
-21,917,58,52,60,34,65,-30,-229,-124
49,855,36,20,20,11,81,42,48,46
147,805,99,42,14,-38,-12,-55,19,90
147,746,236,101,23,-112,-134,-170,-96,153
204,698,164,66,9,-88,-107,-132,-94,298
299,671,122,38,-2,-71,-106,-145,-120,201
279,658,172,46,-33,-122,-146,-163,-101,50
84,617,71,9,-30,-70,-64,-15,13,-30
-170,584,-26,-19,4,0,15,66,85,-216
-182,550,4,-2,21,27,25,49,97,-244
-161,510,9,7,15,17,18,71,138,-148
-141,481,-104,-72,-38,-26,15,99,165,-23
29,466,-80,-80,-70,-90,-82,-79,-79,27
12,427,-31,10,0,-32,-59,-162,-327,-65
-145,402,-87,6,12,7,-8,-101,-376,-96
-135,366,-104,-35,-13,-5,33,-40,-316,-3
-40,309,-172,-117,-92,-61,24,24,-103,136
-84,105,-185,-174,-130,-99,19,158,312,132
-41,-187,-141,-105,-23,11,108,285,465,57
224,-208,70,35,54,24,18,190,229,68
188,-29,196,106,59,-41,-69,96,96,1
134,204,184,106,35,-79,-99,-3,-14,-101
61,300,151,59,7,-54,-77,-21,-23,-143
-1,308,171,51,19,-17,-69,-54,-17,-116
-127,314,151,63,46,17,-47,-76,-7,-86
-147,298,124,63,48,33,-37,-73,-7,47
-142,277,73,41,51,54,3,-40,23,140
-184,262,-6,-2,39,48,18,1,99,114
-172,247,-82,-39,17,70,45,61,128,6
108,224,-27,-31,-7,29,-6,4,73,3
325,220,22,-24,-39,-20,-35,-11,87,52
148,195,-118,-106,-67,-2,54,120,202,59
-110,175,-147,-101,-38,9,66,107,166,-22
-114,169,-86,-33,6,38,44,42,106,58
225,149,-31,-11,-6,28,6,6,36,211
554,131,6,-23,-59,-36,-26,60,36,268
653,129,119,24,-87,-147,-168,-41,-62,247
246,115,206,117,-3,-118,-202,-140,-237,-51
-259,110,185,147,73,-21,-97,-116,-261,-295
-481,104,112,140,129,58,0,-75,-232,-378
-551,108,58,121,146,109,54,-20,-106,-440
-420,101,48,73,96,78,13,2,33,-298
-302,94,50,58,64,70,-10,6,39,-168
-159,92,59,72,67,94,-8,-4,-3,-149
-72,82,33,34,38,70,14,16,9,-94
-127,14,-6,31,56,88,50,45,31,-75
-135,-207,-110,32,67,95,78,76,49,-74
-25,-853,-84,2,25,67,70,73,108,-22
201,-1574,-62,-24,-13,28,48,51,140,130
370,-2605,-98,-108,-68,-29,-2,35,152,334
364,-3658,-113,-132,-84,-41,-14,12,83,365
-67,-4622,-145,-99,-20,19,107,85,74,97
-171,-4747,-25,11,64,65,155,34,-28,-90
-37,-3925,237,166,116,46,11,-133,-155,-164
-100,-3436,230,178,135,107,68,-22,-25,-179
-21,-2534,141,114,103,97,79,28,28,-145
136,-1638,-28,-1,-10,-15,-11,-2,98,38
65,-914,-83,-53,-28,-12,-29,10,97,139
-31,-149,57,41,33,17,-55,-69,-87,-21
-185,376,38,50,53,38,-36,-58,-129,-166
-205,364,-1,28,42,31,-56,-83,-132,-200
-210,268,-65,31,27,40,-62,-87,-142,-188
-98,-87,-25,9,-8,30,-58,-77,-152,-124
94,-523,1,-22,-24,21,-38,-47,-127,-2
120,-1149,-53,-50,-42,0,0,8,-60,73
34,-1843,-145,-69,-52,-3,33,57,48,105
155,-2318,-82,-52,-66,-22,15,46,78,157
255,-2814,-101,-43,-47,-11,38,99,162,247
25,-3101,-136,-53,27,110,138,202,161,254
-20,-2759,96,51,88,117,82,43,-188,50
-81,-2348,176,90,58,36,12,-81,-393,-138
-109,-1582,69,40,29,15,-21,-72,-426,-87
-91,-633,-15,-18,4,9,-50,-66,-358,0
-12,319,-80,-74,-35,-13,-72,-41,-41,150
136,1276,-57,-81,-62,-25,-60,7,202,375
109,1962,-118,-96,-63,33,44,89,196,364
97,2307,-173,-129,-63,48,75,111,125,293
16,2345,-165,-130,-80,13,25,71,84,234
-76,2272,-3,-46,-46,-37,-91,-119,-120,25
-8,2137,295,124,5,-123,-241,-315,-361,-312
144,1944,292,129,2,-113,-194,-153,28,-158
241,1804,241,108,15,-78,-125,-34,231,-79
141,1768,206,123,57,-18,-80,4,251,-79
40,1734,68,58,24,0,-26,49,245,28
-8,1715,-119,-43,-23,15,56,173,304,198
10,1666,-182,-60,-16,64,119,222,332,265
77,1613,-73,1,-5,-11,-9,50,126,139
109,1540,58,49,-20,-82,-101,-24,125,167
147,1456,104,46,-22,-68,-87,5,201,235
36,1365,-20,-12,-36,-50,-61,9,134,196
-171,1288,2,20,1,-15,-48,-53,-54,-85
-263,1217,-11,9,8,18,-6,-51,-145,-238
-296,1157,-110,-28,-11,45,43,13,-148,-235
-356,1095,-334,-146,-69,60,128,147,5,-81
-249,1024,-309,-169,-103,21,104,83,-3,13
51,971,-6,-40,-75,-64,-24,-75,-127,-24
242,906,104,36,-11,-37,-13,-32,-56,69
206,844,178,105,38,-39,-33,-128,-175,-1
-95,776,121,99,45,-28,-1,-98,-181,-176
-62,722,110,94,47,-30,10,-59,-82,-142
-31,675,201,148,93,1,21,-71,-147,-248
-100,640,88,81,66,30,71,22,-72,-154
-4,608,-42,-22,-17,-28,67,84,131,79
102,565,-89,-27,-20,-39,55,55,232,140
173,545,13,38,20,-43,0,-58,43,44
100,512,-85,-11,-17,-69,-8,-39,47,107
-28,477,-200,-67,-34,-41,27,13,86,114
55,438,-85,-75,-63,-67,-9,-41,-4,92
127,411,-18,-40,-65,-80,-33,-93,-103,-27
-18,391,-35,-46,-40,-27,37,-24,-75,-78
-77,368,-38,-46,-31,-12,25,-64,-86,32
-62,343,-107,-57,-1,44,87,-34,-94,138
174,299,-82,-66,-39,-38,-1,-69,-117,217
371,300,-51,-52,-121,-164,-117,-70,-125,223
376,276,-54,-60,-154,-190,-102,27,-68,100
173,205,-36,-59,-146,-175,-90,12,-58,20
-183,2,-153,-92,-102,-116,-19,21,43,27
-375,-219,-70,-40,-9,-17,60,-5,63,-149
-269,-210,19,30,46,44,98,10,157,-210
-17,-176,90,79,94,81,134,69,159,-164
111,-18,55,67,94,122,183,162,147,-100
21,104,-75,-4,66,152,238,255,206,19
-174,217,-110,-13,66,154,202,217,165,-9
-353,251,-63,12,72,126,114,114,41,-132
-443,252,-106,-46,6,56,52,62,11,-123
-279,235,-93,-71,-26,7,7,33,23,-59
-87,219,-20,-12,7,42,9,46,22,15
92,199,-37,-10,6,42,0,21,-14,121
272,182,128,79,29,4,-86,-121,-190,74
300,125,51,20,-18,-22,-14,-41,-74,141
453,-51,-125,-59,-75,-47,-5,4,46,355
632,-980,281,70,-57,-159,-265,-249,-142,279
432,-1971,201,67,-48,-123,-186,-187,-169,120
4,-3024,124,43,-23,-57,-86,-139,-151,-14
-488,-3815,32,35,46,48,31,-74,-111,-103
-660,-4282,-38,23,65,111,93,4,-80,-153
-516,-4341,-64,-12,35,99,91,48,-22,-69
-266,-3802,-32,-23,21,72,58,-8,-124,-6
-173,-3663,73,43,50,61,59,-40,-227,-105
-141,-3554,33,45,5,-20,-39,0,-28,-16
-136,-3275,-100,-62,-60,-10,8,205,358,194
-123,-3080,-356,-242,-129,76,207,471,597,282
-5,-3705,-341,-238,-138,65,153,367,481,220
67,-4438,101,44,0,27,-43,18,133,32
-17,-5155,226,173,105,90,-38,-70,-28,-147
117,-6573,207,110,60,6,-97,-133,-70,-108
121,-8123,255,120,55,0,-88,-131,-73,-86
138,-9511,210,73,36,8,-22,-51,-8,-8
46,-10877,74,25,20,29,45,50,85,-56
-143,-12211,-102,0,51,96,127,127,114,-176
-85,-13381,-30,-13,41,64,101,82,47,-125
124,-13579,119,-3,11,3,0,-23,19,78
179,-13104,173,27,0,-46,-90,-102,-46,68
-32,-12466,72,12,26,-5,-42,-31,-37,-62
-187,-11735,-9,-25,35,36,18,26,15,-68
-146,-11034,30,17,63,65,29,-12,-81,-115
-71,-10375,-28,-25,34,64,66,34,-67,-81
90,-9737,-84,-84,-32,10,10,-4,-79,104
247,-9172,24,-30,-36,-34,-65,-134,-198,174
306,-8618,71,-17,-26,-38,-54,-145,-202,169
402,-8097,54,-52,-65,-84,-68,-126,-121,190
385,-7623,31,-58,-65,-97,-65,-148,-103,76
225,-7189,14,-27,-23,-36,-2,-87,-40,-21
0,-6765,-63,-37,0,22,104,79,141,15
-91,-6358,-91,-35,31,61,137,108,72,-58
2,-5985,66,44,54,25,36,-1,-71,-127
1,-5628,114,82,48,1,15,10,-34,-171
-42,-5284,34,23,13,-7,42,81,95,-167
-111,-4931,-191,-104,-50,9,104,190,332,179
-111,-4615,-55,13,36,49,89,53,44,29
-205,-4174,81,126,93,37,15,-67,-153,-192
-200,-2655,54,82,52,29,-16,-46,-96,-171
-176,2,0,53,39,51,4,-23,-51,-149
-190,2378,59,105,72,79,-2,-28,-57,-243
-223,3869,73,122,89,95,-1,1,-48,-234
-191,4627,25,87,70,69,15,-7,-81,-144
-117,4923,50,93,46,36,-5,-25,-99,-105
-38,4571,84,95,39,22,12,-2,-60,-68
-38,3912,34,61,31,25,57,45,0,-17
-50,3316,-137,-59,-32,22,122,152,124,112
-117,2709,-386,-180,-50,118,265,327,239,216
211,2364,-328,-188,-100,21,96,196,186,400
489,2153,-58,-122,-176,-202,-184,-62,92,452
348,2354,94,-1,-77,-154,-166,-99,-27,206
221,2690,234,128,18,-112,-189,-161,-182,-51
33,3475,150,130,36,-74,-155,-168,-256,-185
-191,4286,74,102,42,-18,-93,-130,-205,-201
-249,5073,81,102,45,11,-74,-64,-67,-119
-85,5954,101,81,10,9,-67,-45,-45,-71
200,6827,109,23,-33,-24,-94,-92,-135,-25
342,7314,114,11,-61,-41,-109,-100,-126,16
235,7254,-17,-46,-106,-34,-39,-8,-29,134
-30,6678,-168,-105,-111,7,69,54,-30,100
75,5915,-130,-93,-125,-54,-11,-40,-33,168
351,5066,-48,-47,-85,-43,-37,-55,82,379
338,4218,-108,-51,-82,-54,-53,-73,27,355
109,3424,-116,23,-13,-19,-37,-86,-78,104
-165,2566,-69,22,-12,-4,18,41,97,-30
-218,2243,-32,29,21,37,64,125,154,-4
-115,2613,81,93,65,60,42,119,114,-56
-77,3315,88,63,6,-25,-9,113,186,-76
-189,4054,-44,11,0,20,67,126,168,-133
-176,5048,-64,-10,-9,13,21,38,115,-113
-127,5912,6,21,16,13,-45,-68,50,-86
-93,6682,73,78,52,50,-28,-118,-43,-133
-1,7220,86,70,49,36,-53,-145,-131,-120
-45,7441,39,50,64,50,-24,-121,-204,-118
-312,7273,-150,-48,39,98,114,60,-123,-110
-204,6875,-166,-96,-40,11,22,70,-132,-39
69,6365,-21,-51,-69,-74,-112,-6,-171,19
201,5604,41,20,-5,-37,-106,-51,-136,48
176,4551,78,54,7,-19,-73,-66,-34,43
175,3407,-33,-17,-56,-103,-65,-30,199,173
171,2179,-63,-24,-58,-120,-81,-57,170,183
16,802,-29,39,47,15,54,-20,-31,-14
56,-375,20,9,32,9,66,11,-63,80
-13,-1219,69,35,35,-8,31,-6,-45,123
-1,-1545,53,44,60,10,44,-15,-39,71
21,-1316,1,20,66,17,31,-24,-33,20
21,-565,-76,-35,17,22,16,59,180,85
41,408,-110,-46,3,19,3,74,275,100
-37,1444,-27,52,56,29,-33,-3,108,-102
-19,2519,127,78,47,11,-86,-60,22,-101
31,3419,142,48,12,6,-91,-67,-19,-81
-30,3863,13,-6,0,43,-14,15,12,-94
-186,3960,-110,-48,0,58,47,77,22,-159
-14,3950,-93,-70,-42,-17,-36,-17,-19,19
213,3674,13,0,-13,10,-26,-68,-54,141
169,3223,23,-7,-16,7,7,-35,-22,92
-128,2668,-38,-49,-35,3,48,43,54,-48
-164,2150,-7,-8,15,48,66,70,35,-153
-41,1725,73,80,67,63,53,41,-3,-183
-129,1732,40,74,78,46,30,-14,-49,-153
-59,2048,-30,17,12,-12,0,-13,-22,67
58,2513,-17,-17,-45,-82,-45,-46,-60,168
48,2871,32,-1,-27,-33,1,-57,-129,35
1,3044,40,6,-3,3,14,-84,-201,-125
34,3048,0,-33,-22,-17,-20,-103,-210,-157
58,2916,-41,-50,-20,-18,-17,-69,-191,-189
197,2763,-138,-59,-54,-36,-42,-64,-188,-71
397,2595,-126,-79,-80,-40,-65,-103,-230,63
390,2432,-152,-156,-109,-23,-35,-21,-78,214
-49,2069,-348,-255,-129,1,106,290,613,432
44,1666,-29,-4,37,85,105,200,511,239
-46,1045,335,191,92,21,12,73,208,-100
-355,311,225,156,99,48,76,122,103,-327
-331,-216,70,95,110,73,141,135,75,-324
-70,-328,-67,4,55,52,148,127,49,-133
170,-339,-13,-68,-45,-68,17,46,70,112
147,-215,109,-2,-18,-80,-84,-67,31,214
-37,124,129,65,58,8,-25,-65,-75,61
-35,508,156,84,55,22,-10,-34,-96,-59
-58,896,174,92,59,34,-14,-49,-150,-246
-183,1280,72,48,61,62,35,-2,-144,-320
-109,1540,25,3,15,20,-14,-14,-59,-201
-53,1584,-18,-37,-12,1,-25,7,69,-40
2,1496,-49,-68,-12,22,29,50,127,94
-1,1309,-91,-90,-65,-33,40,76,168,180
-47,914,-192,-96,-78,-53,46,114,222,182
-45,352,-144,-39,-28,-42,32,65,168,37
-163,-318,-184,-91,-9,21,114,160,244,16
4,-911,-153,-103,-39,-20,76,107,252,159
-17,-1608,-76,-11,57,95,149,115,101,-24
74,-2187,1,21,65,81,105,80,10,6
518,-2220,273,83,-50,-216,-294,-266,-95,270
424,-2269,416,199,44,-167,-282,-290,-108,78
10,-2181,264,147,106,-17,-87,-139,-112,-165
-308,-1738,102,81,99,45,-17,-86,-164,-307
-300,-1381,91,94,113,78,4,-48,-167,-331
-169,-771,84,62,69,40,-25,-51,-131,-233
-22,-315,-26,9,15,9,-57,-77,-119,-134
-33,-2,-72,-15,-15,21,-37,-52,-89,-141
-116,-375,-72,-59,-33,25,0,18,-4,-132
-50,-832,-114,-97,-53,8,19,77,60,-78
-25,-1618,-243,-178,-97,30,107,213,250,95
-50,-2820,-387,-251,-109,50,160,292,389,283
226,-3833,-46,-44,2,31,17,31,67,196
331,-4634,254,150,74,-15,-113,-173,-233,-20
83,-5610,248,111,55,-16,-87,-141,-226,-102
-9,-6601,149,40,15,-13,-35,-87,-163,-51
130,-6910,88,20,3,-24,-30,-77,-112,27
173,-6761,73,4,-4,-27,-48,-55,-19,34
12,-6157,122,16,15,9,-30,-17,48,-69
-159,-5625,67,13,18,17,-27,-16,15,-171
-181,-4751,13,1,12,26,-19,-32,-10,-126
-58,-3771,9,-5,0,26,-47,-78,-81,-25
-61,-2509,-64,-24,2,33,-10,-61,-82,20
-135,-1215,-156,-41,0,60,40,-2,-16,2
-283,-408,-220,-102,-4,138,153,168,141,3
-229,17,-273,-170,-65,113,175,237,176,108
-121,78,-398,-299,-182,17,161,305,308,318
295,46,-259,-236,-203,-94,-38,53,73,357
619,-317,314,150,-5,-103,-240,-349,-457,39
302,-895,377,225,90,-15,-122,-250,-371,-140
92,-1303,228,116,49,-30,-91,-160,-137,-176
174,-1440,142,57,17,-36,-73,-61,156,45
140,-1531,165,88,41,0,-33,-39,206,127
-83,-1419,199,121,72,34,7,-15,127,13
-246,-1199,109,113,79,65,65,65,132,-20
-230,-604,22,50,29,50,66,91,136,-26
-182,529,-4,-3,0,45,56,100,103,-69
-96,1725,-37,-23,-9,38,43,78,75,-16
-2,3014,-36,-26,-18,16,-14,-12,0,84
38,4140,4,-3,-1,13,-40,-73,-66,89
121,5040,13,1,1,26,-33,-46,-15,150
66,5391,-2,17,15,54,-14,-11,-9,143
-165,5295,-69,36,23,62,23,-8,-74,-22
-256,5069,-6,43,29,56,63,-23,-144,-162
-240,4710,-25,4,3,56,92,35,-97,-155
-147,4312,-83,-37,-32,31,70,65,-63,-104
-46,3893,-71,-52,-43,3,34,52,-43,-52
74,3430,-37,-25,0,0,16,1,-58,-13
205,2996,9,-45,-47,-97,-78,-51,44,94
98,2578,33,-24,-48,-106,-71,-29,143,115
123,2427,14,13,-20,-40,-19,-17,117,167
220,2460,19,-7,-54,-56,-46,-75,15,189
137,2636,-46,-53,-60,-18,15,-7,20,165
121,2789,-130,-87,-68,-10,34,32,71,206
121,2893,-23,-28,-72,-39,-15,-46,15,133
3,2846,30,12,-51,-15,21,8,20,22
-139,2723,-68,-52,-37,50,125,159,64,-38
-71,2559,43,6,-2,33,49,105,-101,-105
-94,2396,183,101,41,23,-46,12,-247,-79
-236,2239,109,89,47,59,-5,5,-247,-37
-211,2109,5,6,1,24,7,-26,-189,87
-149,1975,-51,-18,14,49,55,-2,-63,138
-130,1821,-65,2,46,106,146,25,31,69
-12,1600,-26,-14,-21,-26,53,0,137,41
-164,1233,-142,15,33,35,103,60,88,-192
36,858,9,80,38,-16,-14,-55,-16,-193
90,641,192,129,50,-29,-48,-70,-19,-120
-91,608,77,40,20,0,11,-2,-2,-91
90,1132,-101,-114,-100,-95,-23,53,159,214
236,1258,-221,-130,-124,-118,-72,22,190,297
398,1268,-115,-44,-91,-105,-112,-58,86,180
151,1233,-50,0,-14,9,10,53,141,-26
-109,1171,0,4,13,45,21,38,115,-115
-105,1090,55,43,11,40,-6,-37,-16,-110
18,1020,7,1,-20,17,-6,-37,-23,-13
41,921,69,0,-10,16,-20,-88,-143,-75
-34,622,105,55,46,82,36,-77,-237,-193
-90,-111,90,61,36,73,44,-52,-234,-178
-12,-1229,118,26,-64,-80,-110,-143,-194,-61
95,-2474,34,-68,-132,-131,-112,-75,-3,188
-44,-3843,-159,-170,-105,-25,70,133,133,199
-110,-4954,-151,-155,-71,-31,54,136,146,39
42,-5517,39,-40,-37,-93,-61,47,90,-22
88,-5895,-19,-67,-49,-60,-2,144,178,33
-1,-5731,-128,-109,-37,24,120,226,264,95
-40,-5234,-60,-45,-2,8,60,86,153,-4
140,-4816,127,95,72,2,-57,-141,-101,-109
235,-4099,70,84,87,52,-31,-114,-100,-6
207,-3498,92,24,36,-4,-74,-94,-3,87
40,-2741,78,55,52,11,-64,-86,-19,64
-95,-2529,58,47,35,17,-37,-23,15,91
-164,-2909,-19,-35,-22,-9,-29,9,48,135
-26,-3401,-67,-64,-29,-20,-40,-31,-9,147
55,-4459,-35,4,19,27,1,-15,-12,148
70,-5724,3,2,15,54,68,81,108,188
-51,-6471,-80,-11,32,105,134,126,50,62
-136,-7299,88,98,82,64,15,-87,-219,-260
-249,-7875,102,112,85,54,12,-93,-213,-391
-138,-8055,49,50,51,50,50,-16,-148,-286
28,-7632,-8,10,-7,-5,-17,-39,-166,-154
-69,-7090,-34,-4,29,25,4,-15,-142,-168
-149,-6065,7,-4,29,9,-33,-25,-54,-156
-192,-4967,38,18,36,-8,-50,8,135,-140
-109,-3676,52,20,23,-13,-44,19,167,-91
36,-2357,22,-27,-32,-43,-59,-15,94,14
121,-979,-100,-137,-111,-78,-60,27,156,156
122,293,-195,-166,-98,-26,-4,73,215,163
80,952,-32,-20,9,48,23,46,142,-71
30,1294,39,25,16,28,27,32,156,-126
33,1248,41,45,41,42,58,9,26,-110
91,823,2,41,30,30,61,1,-34,-53
139,399,44,21,-20,-66,-30,-102,-104,-26
19,220,-36,-46,-47,-64,-9,-17,33,88
-18,-17,-75,-46,-30,-31,15,28,52,132
55,-43,123,62,31,-23,-21,-44,-85,-27
11,133,180,109,78,27,17,-17,-122,-146
6,651,111,42,77,48,54,46,-39,-89
159,1405,60,-30,7,-18,0,40,35,84
202,2390,-26,-63,-52,-69,-45,13,34,138
42,3299,-69,-21,-3,-26,-23,0,20,70
-7,4212,-65,-19,20,31,10,13,-16,69
-12,5118,-71,-44,-5,19,-11,4,-63,49
-21,5777,0,-17,0,2,-51,-48,-158,-69
-138,5919,-21,-6,12,12,-39,-44,-151,-128
-175,5690,-55,-27,0,5,-37,-33,-85,-86
-61,5307,-55,-29,-32,-33,-57,-60,-11,2
-88,4728,-13,6,17,30,63,11,68,-10
-134,4059,30,44,60,81,131,89,87,-71
1,3382,101,57,34,10,39,17,-12,-99
99,2733,109,41,14,-37,-17,-23,-23,-30
133,2174,88,37,27,-28,15,-17,10,46
74,1802,24,12,26,-12,71,17,55,102
128,1848,-98,-74,-31,-35,47,29,86,271
301,2184,3,-44,-45,-79,-23,-52,-3,299
177,2626,77,30,6,-40,11,-33,-17,86
1,3212,23,39,34,-28,-5,-52,-50,-45
-193,3676,34,38,44,-19,6,-60,-65,-142
-128,3923,20,13,21,-23,-4,-72,-82,-118
-105,3856,-1,2,6,-16,-12,-98,-116,-74
-221,3655,-84,-40,-18,-11,18,-64,-93,-34
-356,3442,-161,-82,-24,23,86,21,-15,-36
-237,3242,-85,-54,-24,8,40,-19,-58,-3
-166,3051,-22,13,17,39,49,-2,-102,-16
-100,2847,-38,-3,-3,21,55,79,-48,33
-36,2676,33,10,-21,-12,34,129,-18,26
-6,2504,48,35,-18,-45,7,98,-6,-6
109,2334,62,29,-25,-49,-18,53,48,67
167,2174,45,0,-27,-44,1,64,119,160
205,2026,-8,-34,-58,-61,-15,23,84,188
279,1919,50,-34,-107,-178,-155,-115,49,204
28,1824,-22,-58,-78,-107,-21,57,267,218
-132,1741,-288,-172,-87,-6,154,253,398,329
243,1654,155,121,76,-2,-37,-142,-296,29
39,1570,200,183,146,62,10,-134,-370,-186
-79,1484,45,71,78,39,23,-73,-242,-124
-3,1389,-1,-4,8,-32,-43,-88,-175,0
136,1302,47,-14,-41,-91,-127,-144,-138,49
168,1221,30,-17,-64,-103,-128,-92,99,140
178,1133,9,-3,-31,-63,-70,6,254,160
84,1039,-154,-80,-24,47,55,169,359,205
12,814,-175,-92,-17,44,60,136,211,168
-155,228,-87,-16,11,-5,-17,-28,-62,57
-104,-641,-11,-6,-16,-76,-87,-111,-130,85
-100,-1541,-57,-2,-26,-65,-64,-60,-84,27
-125,-2169,-175,-54,-25,2,46,54,-18,-54
83,-2486,-60,-81,-75,-55,-10,11,-14,-76
200,-2378,190,61,-2,-70,-120,-173,-209,-265
54,-2357,240,154,100,24,-71,-150,-176,-303
-194,-2261,36,82,94,73,26,10,101,-167
-261,-1997,-49,10,68,90,89,71,226,-59
-125,-1442,10,38,68,72,65,24,96,-39
-66,-1194,38,73,58,63,50,22,-25,-61
-85,-1334,47,83,77,64,42,49,-76,-100
-193,-1779,32,39,64,53,36,46,-80,-173
-211,-2182,-27,-16,5,18,5,41,37,-183
-64,-3410,-12,-40,-38,-24,-13,45,144,-125
-33,-4953,-21,-26,0,14,59,53,126,-151
-1,-6388,12,7,40,47,99,33,92,-130
41,-7439,30,2,23,16,64,7,77,-89
9,-8386,20,18,43,33,63,30,79,-84
28,-8943,-20,-12,23,26,54,71,126,7
-16,-8884,-175,-112,-24,25,103,127,219,133
1,-8665,-60,-56,10,21,62,25,70,25
12,-8069,117,47,31,-25,-24,-106,-131,-154
97,-7335,75,16,-1,-43,-47,-120,-175,-123
258,-6117,36,-19,-53,-86,-104,-151,-223,-59
41,-4667,-32,-41,-50,-45,-51,-67,-122,-52
-150,-3546,-114,-24,2,37,31,15,-89,-110
-82,-2595,-261,-69,-12,59,75,106,82,7
117,-2072,-119,-58,-44,0,5,61,175,131
61,-2499,-116,-93,-55,-12,30,82,105,139
160,-3056,-257,-194,-121,-56,24,84,137,248
231,-3570,52,-46,-67,-122,-139,-144,-124,64
325,-3870,321,164,71,-59,-171,-228,-289,-1
312,-4005,209,109,56,-26,-77,-78,-164,87
252,-3891,19,1,-6,-35,-40,-3,-80,160
173,-3330,-37,-45,-41,-68,-69,-7,-19,241
-104,-2443,-4,6,25,-11,-30,8,-45,-27
-154,-1215,92,66,62,10,-19,-7,-51,-184
-140,386,111,86,65,26,-13,19,28,-140
-169,2024,51,56,53,39,1,63,82,-77
-55,3705,37,46,37,28,-14,47,75,-50
-16,5292,37,26,18,33,-19,20,-1,-143
-126,6383,-74,-26,26,81,45,60,15,-178
-300,7028,-155,-48,33,113,84,107,12,-138
-254,7090,-51,-7,7,40,2,30,-48,-87
-169,6854,15,31,23,52,-3,0,-95,-92
-33,6322,26,28,13,47,6,17,-64,-34
48,5561,18,1,11,25,21,41,-12,-13
18,4652,-72,-77,-51,6,51,113,121,83
-22,3668,-159,-107,-50,43,106,163,215,106
155,2786,94,31,-28,-20,-14,-18,-10,-80
88,1841,148,63,-15,-45,-28,-16,-3,-111
44,1256,67,54,33,8,23,8,-19,-66
142,999,82,87,39,-9,-39,-84,-120,-91
111,847,143,85,50,-9,-44,-90,-117,-132
-20,877,82,44,36,5,9,9,2,-129
-89,985,29,29,26,8,25,31,60,-111
-154,1203,12,28,29,33,15,3,-22,-117
-171,1374,-42,-11,1,24,-20,-13,-68,-118
7,1505,-12,-15,-37,-5,-83,-51,-58,-64
83,1240,-39,-43,-66,-7,-54,-6,10,-12
-56,828,-188,-108,-47,61,74,123,127,60
-38,258,-171,-96,-24,80,103,126,124,63
76,-804,-69,-63,-64,-18,40,62,125,45
245,-1796,20,-22,-43,-30,-8,2,48,64
380,-2467,141,55,-13,-61,-92,-94,-89,69
230,-3158,68,71,22,-14,-23,-45,-63,50
13,-3572,-44,7,10,1,39,49,4,28
-177,-3533,-22,3,8,8,68,72,17,-46
-235,-3042,29,30,36,33,67,50,9,-105
-165,-2264,24,17,12,-4,22,27,17,-91
-93,-1216,25,34,27,10,21,28,31,-64
12,57,41,44,35,11,8,-9,-31,-50
5,1301,37,49,46,16,16,-31,-52,-63
-96,2552,-27,17,34,34,40,-12,-55,-61
-180,3635,-156,-63,-13,55,90,87,65,29
-205,4293,-211,-94,-30,75,125,124,109,33
-1,4525,-36,-24,-24,0,-6,-49,-36,-22
23,4414,-50,-21,-27,11,2,-6,-18,13
173,4213,-130,-83,-74,-11,-11,9,29,215
225,3749,-40,-33,-63,-61,-63,-75,-54,159
109,3094,23,27,-30,-70,-67,-89,-78,54
47,2452,25,5,-27,-46,-10,-26,-23,82
131,1825,26,-7,-44,-80,-48,-60,-51,100
124,1112,17,0,-35,-70,-56,-54,-37,104
93,556,29,22,1,-35,-29,-27,-52,10
-18,83,79,65,50,8,5,1,-120,-152
-156,-302,101,79,67,33,18,-2,-168,-206
-134,-310,60,34,31,6,-14,-10,-112,-61
-18,-145,27,-2,-15,-28,-44,2,-48,78
114,900,-14,-2,-20,-40,-30,-37,-37,181
8,492,8,12,19,15,48,50,79,74
23,-163,-32,-21,10,22,67,73,123,41
17,-1198,-66,-18,15,2,42,30,40,-29
-164,-2400,-109,-13,35,15,75,80,76,-124
-82,-3087,-17,29,38,-24,-9,6,18,-98
-25,-3642,59,55,55,-13,-27,-31,-4,-74
-6,-4003,-15,-9,-4,-56,-10,7,83,57
80,-3847,-19,-43,-49,-70,-6,39,130,207
49,-3455,4,-6,-12,-3,40,75,121,126
9,-2750,28,42,8,25,36,65,75,24
40,-1695,-27,8,-29,17,50,89,61,106
-51,-639,-161,-61,-51,40,81,141,85,162
-197,480,-55,5,-28,10,26,44,-26,-41
-150,1688,95,87,39,19,-15,-60,-143,-154
123,2773,192,116,43,2,-60,-143,-283,-83
139,3204,127,58,0,-18,-47,-117,-245,-13
200,3252,60,12,-31,-40,-47,-89,-127,89
251,3033,51,9,-42,-43,-57,-101,-160,109
40,2313,-16,-18,-42,-18,-8,-46,-148,143
-207,1352,-101,-45,-40,-9,27,11,-5,164
-231,439,-113,-51,-37,-18,19,-4,35,65
-219,-293,-164,-94,-43,10,80,65,95,23
-121,-890,-101,-80,-50,-12,52,45,113,59
38,-1331,99,34,8,-7,8,4,133,8
130,-1155,122,43,34,22,34,83,277,55
31,-916,38,54,82,94,105,159,281,74
-104,-304,29,53,61,63,51,97,163,15
-110,546,42,41,14,26,8,69,80,28
-66,1308,-66,-21,-4,59,71,175,110,90
24,2169,-138,-95,-91,-2,0,103,44,42
45,2833,19,-21,-83,-53,-124,-47,-73,-149
-43,3092,114,83,4,7,-109,-59,-33,-171
-63,3034,146,108,27,15,-126,-152,-108,-133
-7,2769,96,63,-5,0,-118,-172,-103,18
112,2294,45,8,-63,-45,-123,-168,-40,119
40,1398,33,-4,-44,-22,-92,-106,23,46
-133,323,20,20,16,56,11,-25,-14,-153
-194,-848,-21,9,31,88,72,57,-17,-206
-157,-2013,-60,-26,34,103,119,162,51,-101
-33,-2993,-46,-28,15,71,88,187,6,-26
149,-3187,67,13,2,3,-15,81,-55,-8
103,-2866,95,32,0,-15,-27,69,107,-17
64,-2780,77,37,0,-12,-16,38,138,-27
142,-2294,59,22,-12,-9,-17,-26,72,43
143,-1732,22,-11,-23,5,-9,-48,60,84
70,-1020,-18,-30,-9,9,-11,-35,46,55
94,-217,12,-3,20,-2,-31,-49,-37,7
105,473,19,8,34,10,1,-39,-78,-45
-9,807,-14,-9,33,29,21,-18,-75,-58
-58,843,-129,-65,-7,7,-16,-22,-49,58
79,653,-219,-92,-73,-80,-106,-111,-61,136
118,201,-225,-155,-119,-70,-26,35,115,259
115,-367,-320,-239,-115,20,126,218,244,379
2,-814,-74,-70,16,73,107,96,-75,-42
-58,-1322,160,54,55,18,18,-14,-201,-249
30,-1620,162,74,36,-10,-19,-58,-173,-174
38,-1489,99,65,63,13,-2,-47,-99,-101
16,-862,94,72,50,-25,-41,-70,-43,-64
10,-29,5,15,15,-30,7,-7,57,41
30,1006,-124,-88,-35,-20,48,59,81,227
-32,2177,-15,-21,-13,-42,-43,-67,-93,192
-172,3094,93,44,17,-52,-110,-151,-126,71
-226,3840,52,14,13,-34,-97,-108,-36,-20
-248,4180,44,11,46,19,-51,-60,-30,-176
-216,4141,27,39,69,73,-25,-16,-26,-254
-109,3924,25,44,52,67,-10,-1,14,-238
-20,3694,13,-3,2,33,-16,24,87,-154
-8,3471,-80,-60,-25,37,29,97,148,-59
-29,3245,-85,-54,-7,60,60,116,121,-16
151,3008,-18,-20,-12,21,-5,38,94,74
282,2722,-22,10,-21,-10,-34,0,87,147
177,2382,41,18,15,14,21,45,75,76
73,2079,99,22,-6,-37,-16,-1,-2,-8
25,1919,-51,-3,-17,-24,42,15,39,68
99,1933,-128,6,-21,-49,0,-84,-58,56
37,1949,12,46,-19,-55,-23,-101,-104,-59
31,1950,75,26,-43,-59,3,-32,-31,32
39,1919,26,-29,-72,-81,-41,-48,-40,133
-13,1853,-13,-72,-86,-69,-65,-44,-56,83
-76,1765,-12,-48,-58,-27,-35,-26,-82,-67
-123,1667,-54,-26,-28,18,5,25,-32,-66
-140,1589,-101,-23,-7,46,17,6,-18,15
-172,1492,-72,-2,10,28,-16,-48,-35,-37
-226,1385,-42,7,27,46,26,24,55,-119
24,1288,37,9,-8,-14,-31,-17,72,14
123,1151,95,48,7,-21,-24,-44,12,58
143,918,59,20,0,-20,27,-5,47,117
120,558,18,-12,-9,-36,33,-7,57,154
3,19,-35,-33,-13,-12,65,25,54,106
-108,-587,45,36,37,26,82,-18,-100,-170
25,-937,78,43,9,0,57,-30,-130,-139
48,-1020,-26,-23,-35,1,100,57,15,55
-43,-854,-86,-26,-16,17,86,23,0,121
29,-426,52,30,-3,-27,-29,-97,-113,109
-42,-76,43,31,-12,-24,-42,-72,-79,11
-32,325,34,17,-38,-47,-67,-76,-98,-58
16,689,49,29,-38,-48,-51,-94,-186,-137
43,880,-40,-20,-49,-33,-13,-87,-222,-135
-60,858,-200,-105,-55,-3,44,28,-4,-40
-38,673,-200,-118,-59,-1,36,61,145,24
194,367,-4,-38,-65,-68,-84,-94,-17,-29
217,-258,75,15,-44,-70,-96,-105,4,-25
40,-1160,126,74,8,-15,-25,-47,54,12
-147,-1987,74,56,25,27,61,39,115,137
-225,-2715,-14,10,3,47,149,134,212,140
-287,-3318,-136,-26,15,124,247,217,195,70
-114,-3490,-57,18,48,124,180,113,23,-4
-37,-3269,69,49,33,35,55,2,-23,-61
-115,-3112,68,22,3,-22,-4,-22,-23,-146
-160,-2662,89,45,13,-15,-31,-66,-111,-265
-121,-1924,110,85,31,8,-40,-95,-180,-279
0,-1173,79,71,3,-8,-69,-61,-95,-121
93,-459,8,7,-28,-7,-56,31,80,88
-32,-7,-147,-67,-9,78,89,151,154,131
-173,308,-322,-156,-20,114,188,224,207,152
144,77,27,-37,-51,-78,-124,-144,-47,103
105,-534,161,71,13,-39,-111,-153,-43,-7
-51,-1283,-135,-97,-31,17,42,106,218,160
78,-2042,-195,-146,-61,-10,8,146,204,314
93,-2820,40,38,52,7,-41,29,-175,23
34,-3626,247,181,143,29,-33,-21,-338,-226
91,-4320,172,133,93,-9,-22,-42,-225,-86
124,-4814,16,72,48,-13,11,-62,-133,-30
121,-4898,62,60,57,15,22,-51,32,-60
146,-4570,119,53,42,-9,-40,-42,216,-2
78,-3962,90,41,50,5,-34,1,221,18
-84,-3035,35,42,69,30,-8,1,109,-90
-131,-1916,6,16,25,-1,-56,-27,54,-129
-91,-715,-62,-53,-33,-38,-63,-8,72,-39
-66,565,-181,-139,-86,-29,-15,61,127,107
6,1679,-220,-181,-109,-38,2,90,142,261
21,2312,-201,-144,-61,6,48,106,104,231
46,2500,-160,-88,-24,22,12,57,25,151
103,2431,70,55,45,0,-88,-87,-103,22
75,2000,243,139,107,7,-72,-123,-116,-158
52,1390,206,124,105,6,-43,-72,-85,-188
66,845,136,76,76,-10,-24,-29,-67,-129
70,343,53,1,35,-44,-15,4,7,13
13,-157,-122,-47,12,-42,29,62,102,183
-9,-455,-50,0,40,-4,56,40,51,127
-51,-397,14,22,57,29,48,24,-35,-40
-115,-110,-29,1,51,39,53,24,-60,-125
-107,485,-54,-20,20,11,40,33,-31,-63
-110,1387,-115,-84,-46,-21,32,68,38,5
-150,2266,-105,-74,-20,35,50,66,15,-10
-135,3024,-80,8,73,135,92,57,-52,-29
-109,3397,-213,-32,52,134,109,77,-41,-23
39,3411,-113,-39,-25,-23,-66,-89,-180,-21
27,3253,10,-29,-49,-76,-110,-111,-156,-17
-91,3069,-42,-53,-47,-24,-17,4,-38,-2
91,2894,66,-20,-47,-92,-99,-112,-161,13
40,2697,117,39,3,-50,-38,-85,-190,-48
23,2495,-27,-62,-51,-48,16,61,66,152
-2,2265,-199,-129,-72,-6,64,165,271,317
47,2018,-113,-57,-29,0,17,58,147,194
95,1653,224,122,27,-70,-135,-161,-129,-47
-22,1372,204,135,69,-24,-70,-106,-120,-112
33,1314,128,79,45,-25,-22,-73,-73,-44
99,1423,66,33,2,-48,4,-35,25,82
73,1539,27,-6,-22,-39,3,-4,70,96
98,1602,35,-5,-18,-34,-60,-45,7,65
239,1576,12,-23,-38,-56,-106,-64,0,139
251,1493,-108,-107,-96,-50,-66,36,133,286
215,1412,-220,-177,-129,-34,0,130,271,441
208,1329,-123,-111,-97,-40,-21,53,160,326
-36,1231,-70,-13,20,62,61,30,-5,-13
-197,1093,-82,0,59,123,128,83,12,-170
-41,783,34,-5,-45,-44,-66,-34,-29,-28
-32,5,106,33,-21,-70,-89,-64,-56,-25
-86,-1170,49,58,55,30,32,8,-20,-51
-198,-2528,-85,69,99,100,106,26,-87,-132
-61,-3949,-46,89,60,26,-1,-107,-241,-191
25,-5168,164,119,68,7,-28,-105,-198,-221
-81,-5950,95,51,60,39,62,5,-55,-193
-111,-6270,13,-8,15,22,46,3,-69,-197
-117,-6367,16,3,16,1,8,-43,-163,-215
-12,-6011,17,2,5,-7,-7,-44,-132,-126
10,-5653,28,-9,-7,-15,-13,-44,-105,-86
-37,-5007,17,6,6,8,23,-58,-115,-94
-116,-4280,-18,-15,5,45,30,24,67,-72
-136,-3292,-41,-46,-20,28,11,84,194,-19
-7,-2869,35,-1,-15,10,-48,-9,69,7
61,-3023,123,41,-4,5,-73,-39,5,-17
68,-3442,82,30,3,47,-9,23,9,-14
90,-4002,41,28,13,71,28,53,6,40
21,-4800,49,51,36,73,45,40,-9,22
-5,-5177,45,58,48,61,86,39,41,6
-23,-5360,-96,3,14,34,108,119,218,109
-22,-5375,-249,-31,5,55,123,127,206,119
74,-4944,-5,22,-8,-34,-33,-69,-74,54
-120,-4241,83,60,8,-27,-21,-17,-85,54
-165,-3162,5,34,13,15,29,39,-70,48
-76,-1738,-78,-19,-38,-17,1,21,-15,109
18,-119,-36,-27,-48,-28,-17,6,37,108
31,1270,-29,-38,-44,-12,-23,28,129,53
114,2618,-67,-65,-64,-19,-49,34,153,72
187,3793,23,-37,-66,-52,-94,-29,61,40
47,4508,69,15,-36,-27,-72,-41,-17,-50
10,4682,23,3,-33,-19,-40,-29,-4,-15
-8,4588,-170,-97,-72,1,52,89,138,140
-113,4236,-260,-139,-80,19,58,139,178,135
-136,3636,-44,-20,-26,-5,-42,43,-15,-98
-150,2888,186,99,37,-25,-91,0,-160,-357
49,2193,162,78,21,-41,-69,23,-87,-225
271,1479,-39,-42,-55,-48,-10,74,53,86
472,937,-52,-55,-89,-120,-95,-44,9,202
454,714,24,15,-54,-117,-108,-146,-89,120
233,698,10,-33,-52,-47,32,-26,44,135
13,807,-167,-119,-66,-19,108,97,142,196
-67,1209,-148,-59,-6,6,99,51,8,112
-174,1652,114,63,49,15,70,-12,-120,-33
-342,2100,188,126,92,48,52,-35,-179,-164
-327,2657,135,103,83,48,24,-78,-191,-195
-214,3102,34,17,14,30,13,-72,-119,-94
-66,3208,-35,-61,-61,-14,-18,-52,-1,84
57,2986,7,-14,-31,-17,-38,-93,15,102
44,2563,108,60,22,-4,-30,-100,66,-18
-73,1808,148,107,82,33,14,-25,125,-126
-109,811,59,54,68,55,53,29,129,-155
-96,-133,2,5,44,71,77,64,88,-183
-92,-1117,-54,-17,58,115,122,85,32,-145
-28,-2078,-47,31,85,99,97,33,-47,-147
-12,-2786,141,115,125,80,46,-55,-166,-253
-6,-3105,158,98,127,69,48,-54,-167,-239
61,-3087,127,54,61,-26,-50,-107,-119,-92
139,-2783,-48,-32,-39,-125,-134,-83,39,149
75,-2249,-53,-33,-21,-100,-98,-24,19,94
-110,-1653,0,-4,27,-17,8,100,-10,-44
-253,-1141,-93,-46,40,69,144,253,82,-83
-207,-387,-179,-95,20,73,145,210,123,-31
-47,223,-175,-126,-25,-11,20,81,228,139
-24,352,-178,-158,-32,-25,4,79,313,247
96,9,58,-1,55,-36,-104,-183,-117,49
115,-659,277,151,126,-10,-134,-288,-352,-118
-4,-1766,141,72,84,8,-59,-138,-204,-81
-90,-2865,61,11,40,-17,-51,-117,-153,-113
-124,-3915,53,23,57,33,3,-38,10,-70
-19,-4874,-3,-5,17,36,20,63,223,157
205,-5859,-3,-48,-57,-38,-38,41,251,293
361,-6303,79,-34,-80,-92,-87,-40,171,263
259,-6399,114,2,-40,-67,-40,-44,48,91
205,-6180,70,-6,-45,-53,-22,-33,6,37
292,-5517,4,-42,-70,-53,-33,-28,38,122
56,-4110,-142,-43,-8,35,16,6,-75,-23
-165,-3108,-65,-23,19,56,18,-30,-166,-188
-135,-2056,-42,23,27,37,-18,-37,-84,-158
-52,-1279,-142,-15,-8,20,-20,52,155,-41
92,-876,-81,-34,-41,-11,-31,53,221,53
44,-814,-3,38,25,45,5,8,59,-56
-77,-1095,-31,34,32,65,32,22,-2,-113
-72,-1620,1,24,30,77,62,47,30,-90
-50,-2121,4,28,25,51,36,44,61,-75
-150,-2665,-22,58,37,44,28,38,59,-90
-129,-3045,-46,64,58,44,32,1,-37,-100
-87,-3270,65,72,66,20,22,-19,-119,-113
-32,-3109,65,71,45,3,62,-7,-118,-70
37,-2604,24,-5,-14,-14,102,44,-78,0
113,-1931,-55,-78,-57,-16,86,73,13,95
114,-1032,-30,-52,-31,-9,40,42,-17,104
115,-88,103,22,-3,-43,-50,-67,-99,92
93,878,119,36,-5,-23,-66,-59,-25,43
35,2002,44,15,-2,35,-33,0,-8,-81
138,3030,27,3,-23,0,-55,-20,-43,-73
169,3569,-47,-74,-110,-65,-88,-9,38,67
32,3548,-155,-137,-131,-72,-60,31,119,178
-78,3181,-91,-60,-54,-26,-32,1,23,58
-148,2398,-68,1,0,26,31,40,28,-78
-98,1460,-92,37,20,37,69,56,54,-96
43,690,70,88,46,29,43,-10,-58,-124
57,-56,115,46,35,1,12,-6,-54,-37
91,-649,94,37,1,-39,-50,-56,-66,112
84,-951,83,36,-12,-52,-41,-29,5,185
-45,-839,59,34,-3,-27,-10,8,18,95
-12,-579,52,22,-2,-34,-18,-21,-59,19
81,61,-28,-26,-45,-70,-31,-22,1,66
68,1019,-101,-32,-55,-58,1,18,108,69
31,2046,-12,-20,-39,-27,36,54,139,121
-21,3210,-28,-54,-24,7,54,91,120,114
-53,4338,-155,-94,-37,9,19,80,58,36
-34,5083,-132,-61,-41,-12,-52,3,-48,-96
-12,5313,-158,-108,-72,-6,-20,47,22,-33
81,5130,-164,-118,-78,-12,-7,22,-13,-18
57,4568,41,-9,-34,-61,-83,-56,-14,-159
87,3504,120,35,-14,-80,-120,-113,-47,-57
166,2479,59,-9,-40,-76,-96,-70,18,183
1,1355,-8,-18,-3,10,28,26,0,28
-114,313,-9,20,27,32,60,-24,-157,-250
-187,-737,69,52,59,63,99,10,-116,-270
-175,-1412,140,94,84,79,84,-15,-135,-209
-130,-1795,34,34,29,33,43,-37,18,-96
-136,-1513,5,5,13,53,84,46,137,-44
-105,-1024,-27,-22,2,51,64,52,116,-10
-30,-546,4,-3,2,25,-4,-44,-34,-10
26,31,37,41,18,11,-60,-117,-152,-66
3,477,-74,14,2,7,-28,-53,-110,-93
15,664,-42,-8,-21,8,-1,43,-57,-86
-29,306,-60,-36,-41,22,40,149,10,-48
106,-206,-57,-73,-59,11,35,145,43,70
423,-1099,119,-30,-83,-102,-105,-16,-54,170
249,-2385,139,26,-12,-42,-33,14,-89,108
-66,-3640,26,14,38,47,90,48,-103,-9
-167,-4887,65,18,25,4,52,-58,-182,-92
-145,-5866,193,81,49,-27,0,-139,-238,-115
-65,-6462,170,65,45,-36,8,-106,-113,-14
-33,-6615,97,19,11,-39,19,-29,111,139
-83,-6830,51,4,3,-17,41,18,143,111
-100,-6504,-49,1,10,25,79,61,155,44
-105,-5731,-101,-9,50,31,72,41,158,19
-132,-4685,-110,-38,35,11,55,23,81,13
-100,-3573,-146,-60,31,46,72,51,37,79
-67,-2195,-99,-27,45,58,43,14,17,128
-264,-1117,-144,-34,68,157,171,138,73,19
-162,-181,-98,-79,-11,52,51,86,26,-58
-39,171,-33,-74,-40,-22,-69,-19,-46,-56
242,253,21,-62,-85,-116,-209,-160,-117,176
382,-287,181,47,-51,-146,-288,-267,-215,206
278,-1213,92,18,-36,-81,-170,-85,49,188
177,-2018,-34,-48,-43,-28,-51,79,282,220
38,-2744,-7,1,26,41,18,119,236,82
-12,-3240,127,73,48,31,-14,39,82,-92
-102,-3483,57,50,33,36,38,61,69,-131
-178,-3256,-126,6,51,98,134,165,115,-83
-20,-2510,-40,5,36,61,55,66,-22,-39
68,-1383,43,4,-3,-20,-56,-44,-92,-26
-31,-118,60,12,16,17,-18,3,-25,-103
-18,1233,77,44,12,14,-46,-18,-41,-140
-65,2674,46,55,34,40,-3,-52,-129,-174
-101,4033,1,19,28,49,24,-70,-159,-128
74,5064,28,0,-42,-44,-80,-83,-115,59
155,5313,11,-8,-71,-60,-105,-51,-58,161
60,5051,-45,-14,-53,-18,-53,-2,-67,115
-127,4334,-118,1,-4,25,6,37,-30,6
-190,3281,-19,44,19,42,1,18,-1,-71
-214,1957,-10,48,31,66,56,75,94,-66
-148,762,-73,44,52,65,77,90,124,-24
-39,-405,-40,75,82,71,73,50,77,-11
41,-1346,32,80,74,45,46,11,16,-12
23,-2031,46,52,38,30,45,18,10,-61
7,-2178,-1,2,5,5,73,54,60,-10
125,-2150,11,-30,-35,-45,14,29,98,123
128,-1808,-54,-78,-64,-32,33,67,102,184
136,-1290,-78,-89,-70,-25,36,51,61,156
120,-750,22,1,-6,22,0,-17,-47,27
156,-169,106,52,0,6,-81,-89,-103,-52
141,401,118,55,-22,-23,-107,-114,-73,-82
8,584,-36,29,-6,30,5,-27,-11,-75
-79,356,-216,-74,-55,47,119,107,115,42
-9,-26,-178,-107,-96,-8,63,59,73,138
84,-714,95,37,-36,-57,-59,-142,-175,0
6,-1711,145,78,-7,-36,-22,-98,-125,-19
32,-2405,55,17,-36,-33,-5,-8,-20,28
63,-2843,51,30,-24,-24,-22,0,-50,-65
7,-3089,49,67,25,6,1,13,-79,-176
-88,-3056,-31,78,43,34,52,55,1,-182
-70,-2478,-72,0,4,22,50,86,109,-73
-7,-1557,-19,-29,-37,-29,4,47,99,13
-16,-451,19,4,1,-4,27,37,39,14
-11,910,40,16,13,-16,15,17,10,-11
-18,2299,48,29,3,-25,-10,6,11,-51
60,3909,27,8,-9,-6,-15,6,0,-27
-2,5426,-50,-16,7,36,23,45,7,11
-104,6751,-73,-2,35,56,38,40,-24,-2
-39,7519,36,18,-12,-44,-85,-93,-106,-34
-26,7696,21,-4,-41,-68,-108,-108,-88,-29
-15,7578,-34,-38,-36,-38,-45,-50,-50,16
32,7095,-30,-28,-23,-32,-6,9,0,42
152,6584,-40,-57,-69,-67,-19,49,61,155
129,6082,-161,-148,-110,-63,10,103,137,247
-4,5527,-120,-92,-42,-18,22,56,0,117
-100,4980,127,98,85,41,19,-37,-239,-151
-94,4500,167,124,105,35,17,-38,-264,-158
-22,4348,59,44,39,-4,13,-5,-114,-25
-71,4446,-72,-30,-11,9,43,76,83,30
-56,4797,3,26,24,5,-6,8,19,-70
-80,5086,29,90,72,25,-21,-38,-76,-215
-91,5147,0,37,38,23,-13,-17,-49,-192
-6,5052,0,-8,-21,-12,-64,-49,-39,-84
43,4827,-45,-35,-23,-5,-53,-85,-114,-53
56,4547,-55,-46,-26,-8,-43,-86,-166,-48
58,4270,-29,-47,-45,-53,-95,-104,-130,52
-112,4004,-87,-46,-26,-16,-36,-56,-82,43
-211,3748,-159,-69,-20,21,26,5,15,90
-97,3435,-203,-144,-93,-28,-2,119,363,335
8,3047,-84,-79,-75,-63,-67,115,407,290
165,2599,96,76,2,-68,-112,93,259,110
138,1977,37,103,41,-35,-55,212,230,1
104,1456,34,66,26,-5,5,234,143,-22
69,1153,56,45,7,6,14,94,19,-68
-21,1053,80,41,4,-25,-16,-11,-6,-89
-63,1090,79,48,17,-16,-3,-62,49,-52
40,1376,87,84,44,7,-13,-111,18,45
117,1678,117,101,48,0,-31,-135,-39,49
112,1893,99,76,40,12,7,-82,-24,66
90,2046,23,41,34,53,49,-28,-8,143
-13,2071,-56,-5,14,62,77,15,41,31
-116,1972,-93,-20,4,73,92,34,26,-124
48,1857,-52,-21,-20,25,36,16,-1,-13
129,1654,-103,-97,-69,-14,8,52,91,267
34,1230,-169,-137,-64,-21,27,27,43,360
39,550,3,-8,10,-15,-26,-112,-184,109
-4,-262,158,91,71,11,-32,-112,-182,-114
-164,-1177,71,70,60,29,27,-29,-59,-165
-169,-2030,-70,35,19,9,18,-10,37,-68
-87,-2690,-110,-10,1,25,52,50,128,62
75,-2976,27,0,8,37,85,27,17,38
68,-3167,62,12,0,-5,45,-27,-121,-70
-180,-3230,-20,7,7,0,34,-17,-106,-199
-204,-2942,-67,29,24,-3,-16,-46,-48,-165
9,-2493,46,45,25,-14,-50,-58,1,10
56,-1894,88,39,39,25,-22,-24,31,61
43,-1150,5,12,26,36,12,-10,27,31
2,-519,-69,-30,2,35,16,10,64,-24
-22,-410,-14,-22,-4,17,9,-8,-11,-64
-6,-712,28,-11,-6,9,-21,-61,-142,-99
11,-1284,33,-13,3,7,-41,-61,-144,-57
16,-2247,48,-2,5,-8,-46,-13,-18,54
-42,-3273,31,2,25,8,-8,35,73,78
-63,-4089,-8,-26,21,27,44,79,83,85
-20,-4741,-16,-59,-12,6,49,71,43,108
-46,-5251,-17,-44,-5,24,85,67,31,67
-125,-5429,-37,-10,63,115,164,125,29,26
7,-5117,-2,-13,35,83,96,89,0,27
138,-4588,73,-1,7,9,-8,-4,-75,-14
105,-3798,83,20,34,24,5,-18,-102,-60
-11,-2799,52,18,48,46,41,4,-65,-73
80,-1709,61,5,19,5,20,4,29,103
310,-426,56,-39,-51,-83,-91,-80,20,260
164,668,50,0,-35,-60,-128,-139,-104,45
-113,1310,-20,-4,-13,-11,-84,-55,44,-43
-48,1532,-3,-5,2,27,-41,10,164,32
-3,1440,-8,8,17,76,9,31,98,19
-58,882,-71,-16,12,87,51,56,35,-28
-138,-69,-152,-71,-24,31,41,74,64,-28
-140,-1050,-178,-52,2,40,37,39,39,-14
125,-1819,-38,-28,-15,6,-33,-45,6,141
468,-2486,13,-53,-84,-105,-129,-110,55,391
478,-3162,19,-58,-76,-127,-118,-123,6,349
214,-3475,95,-6,-19,-84,-61,-98,-70,77
-88,-3502,153,46,5,-79,-87,-79,-81,-119
-226,-3313,150,66,26,-32,-60,-13,-53,-100
-278,-2881,103,43,22,18,22,80,-33,-62
-293,-2463,53,24,30,47,80,103,10,-113
-304,-2037,31,28,51,78,88,79,4,-159
-246,-1501,1,8,32,82,43,23,-108,-189
-148,-1062,-92,-11,10,69,37,-8,-123,-201
-158,-1089,-242,-75,5,103,119,109,15,-69
-158,-1606,-359,-198,-13,158,247,271,176,157
188,-2192,-154,-141,-79,-18,-15,20,28,210
356,-3351,151,5,-80,-156,-233,-183,30,131
219,-4885,191,36,-22,-101,-131,-132,50,-31
127,-6075,150,30,17,-61,-44,-99,-65,-130
101,-6955,75,-8,-7,-80,-44,-76,-57,-33
83,-7665,-10,-31,-25,-80,-14,-4,57,73
118,-8087,79,3,12,-32,24,34,85,126
109,-8027,89,-6,4,-30,36,21,91,179
-25,-7711,-2,-45,-37,-67,8,-12,82,214
-147,-6910,-54,-49,-16,-56,18,-36,6,70
-172,-5474,15,11,40,6,43,-30,-56,-156
-224,-4299,12,36,74,78,107,62,54,-238
-190,-2896,-28,20,47,87,114,106,90,-205
-105,-1442,-95,-44,-37,19,52,90,98,-97
-134,-274,-180,-109,-108,-31,27,106,157,35
-244,280,-216,-102,-69,0,52,90,98,2
-273,506,-115,59,75,85,55,-27,-164,-269
-133,467,17,124,92,59,-4,-97,-219,-281
-123,-84,-89,28,69,117,118,56,-46,-110
123,-486,-104,-11,27,73,80,5,-100,55
284,-872,128,24,-45,-101,-108,-162,-195,118
127,-1367,181,43,-30,-105,-78,-94,-68,96
78,-1679,176,70,11,-65,-41,-80,-103,24
112,-1537,190,77,3,-78,-83,-110,-84,20
149,-1123,104,14,-41,-108,-98,-57,122,150
226,-530,8,-15,-48,-89,-70,-25,150,188
208,378,-16,22,-20,-52,-64,-74,-2,-28
61,1434,57,45,-1,-25,-42,-114,-105,-192
-93,2449,33,25,17,8,-15,-99,-127,-227
-119,3773,-60,-11,-15,-9,-53,-65,-49,-147
-75,5120,-75,-40,-59,-30,-80,-12,28,-17
-12,6005,-106,-68,-88,-54,-106,51,66,108
-89,6165,-141,-52,-45,13,-18,178,87,125
-187,5910,-150,-34,-3,105,94,282,150,137
-82,5430,-129,-50,-44,26,-7,122,44,140
21,4549,12,6,-36,-16,-67,-60,-104,18
13,3622,66,62,0,9,-18,-34,-15,-58
-5,2778,57,64,25,39,35,-2,51,-20
32,2065,47,54,31,31,32,-15,3,1
9,1498,44,57,37,41,56,4,-20,-35
-10,1453,13,5,1,23,67,31,-54,-6
-84,1848,-43,-43,0,7,48,25,-2,50
-27,2350,-1,-6,29,6,-3,-28,15,76
141,3180,20,-17,-27,-57,-89,-62,76,186
252,4055,38,-16,-59,-101,-134,-103,70,180
192,4805,54,9,-27,-63,-115,-103,5,-1
16,5355,41,18,14,5,-40,-43,-26,-169
-121,5728,-31,-9,31,45,19,8,-25,-169
-186,5798,-94,-43,20,44,37,30,0,-86
5,5567,38,9,18,-1,-16,-65,-103,-29
56,4995,48,14,10,1,22,-42,-114,-50
-41,4028,-85,-44,-12,22,77,45,-30,-49
-23,2881,-15,5,-3,-1,-3,-23,-122,-87
-45,1566,-50,49,32,6,-19,-29,-115,-135
-37,279,-113,34,33,18,26,-11,-57,-106
84,-678,40,20,-8,-65,-30,-59,2,8
161,-1485,122,13,-48,-133,-102,-107,42,115
61,-1919,77,0,-39,-79,-50,-51,37,74
-23,-2124,43,-5,7,-15,6,11,25,9
-10,-2002,45,-4,2,-15,-8,1,15,12
-46,-1587,59,-2,-7,-15,-42,-1,42,-8
-81,-1132,13,-15,-13,-7,-21,30,84,-26
-59,-506,-9,-15,-6,3,29,34,58,8
-103,65,-4,-3,8,23,42,55,83,30
-92,497,-11,-10,5,31,4,55,33,3
-107,456,-37,-19,-4,54,19,61,-17,-32
-40,89,-9,2,-11,35,-8,16,-44,-5
105,-576,62,15,-27,-35,-83,-50,-24,79
184,-1574,4,-16,-40,-66,-91,-25,59,174
264,-2544,-81,-67,-81,-76,-54,28,159,251
325,-3388,-71,-78,-89,-87,-60,2,129,313
243,-4203,0,-33,-53,-67,-57,-27,47,288
176,-4854,53,3,-32,-67,-60,-82,-22,213
139,-4929,33,-10,-15,-49,-29,-38,90,182
-196,-4725,-56,-18,39,62,110,93,172,-22
-416,-4234,-169,-49,67,142,208,195,202,-191
-55,-2302,-111,-58,13,69,83,82,71,-40
57,-1120,122,50,12,-4,-56,-79,-48,2
60,62,116,61,34,-3,-53,-121,-154,-25
28,1171,-38,20,26,12,-13,-89,-156,41
-22,1826,-34,-2,19,37,37,-18,-97,141
41,1893,40,7,-6,-9,-9,-63,-144,79
90,1652,85,14,-23,-38,-65,-105,-136,-47
-44,822,102,41,30,35,0,-45,-5,-190
-162,-284,110,71,83,102,94,51,85,-235
-67,-1226,104,72,54,58,57,3,-4,-154
0,-2077,89,56,29,14,18,-14,34,-36
-22,-2786,94,60,43,13,29,2,16,-41
-56,-3155,110,38,26,-13,27,-26,-10,-71
-119,-3098,38,36,41,11,50,-26,-30,-99
-84,-2799,-33,18,32,33,68,6,-1,-23
-29,-2218,-44,-37,0,31,71,44,44,51
-3,-1370,-121,-106,-62,1,26,75,95,158
-50,-529,-125,-103,-38,41,33,56,44,120
3,389,-101,-98,-44,26,5,22,-11,78
30,1355,-10,-42,-42,-34,-92,-77,-137,-37
-54,2100,38,24,11,9,-81,-78,-191,-136
-70,2270,46,24,2,5,-73,-17,-120,-120
2,1980,51,20,-13,-25,-107,0,-124,-146
58,1387,-52,-27,-54,-22,-72,65,-37,-3
48,350,-95,-87,-76,-4,-6,120,140,170
-80,-797,-167,-102,-15,90,123,181,185,101
31,-1768,-93,-62,14,63,73,75,40,56
261,-2513,151,33,-25,-104,-145,-171,-176,48
281,-3113,161,52,-27,-106,-119,-157,-225,113
173,-3297,71,23,-10,-48,-19,-65,-240,110
9,-3010,55,35,-6,-25,-5,-63,-227,29
-86,-2445,22,40,2,-5,27,-33,-95,41
-188,-1573,-29,11,-11,4,50,48,99,11
-238,-546,-35,-4,-22,11,31,57,171,-107
-220,466,-58,-23,-26,13,11,46,237,-89
-131,1676,-58,-13,-13,33,-3,42,229,-24
0,2911,-15,16,-4,32,-42,-13,107,-18
86,3890,6,17,-29,-2,-82,-67,29,-29
109,4420,4,3,-34,3,-66,-48,22,-58
-62,4587,-79,5,24,70,34,55,65,-201
-218,4359,-151,-7,70,169,166,188,99,-231
-35,3927,-69,-3,38,119,136,198,99,-102
135,3321,60,42,7,24,2,150,93,0
167,2858,139,54,-21,-52,-85,44,37,42
-7,2259,115,45,6,-15,-33,7,-23,-68
-23,1757,47,24,35,39,50,24,-25,-39
159,1940,55,0,0,-10,11,-42,-64,88
225,2480,70,-12,-41,-74,-55,-92,-75,140
136,2997,13,-40,-46,-72,-39,-48,-32,88
-12,3704,-13,-26,-15,-29,-5,-9,-52,-118
-146,4383,-15,-7,2,1,19,12,-57,-225
-149,5160,-12,33,12,9,-11,-22,-35,-201
-73,5734,33,55,31,21,-45,-55,-12,-156
68,5950,41,33,14,-6,-54,-68,-19,-66
172,5783,33,33,20,-4,-42,-59,-45,-13
132,5460,-73,-6,-9,-12,-52,-44,-44,56
-20,5077,-72,-32,-21,-18,-46,-30,-53,28
-119,4606,-56,-4,12,38,27,4,-65,-133
-203,3947,-17,32,67,94,102,67,-43,-236
-290,3131,-32,44,101,127,157,107,-21,-225
-188,2329,-9,18,60,55,100,45,2,-65
-19,1545,10,-20,-4,-46,17,-24,77,152
-19,894,-74,-72,-44,-55,43,18,160,228
-110,563,-101,-63,-14,-5,99,77,134,89
-174,473,-118,-47,27,39,124,97,74,2
-51,655,-43,-16,50,34,46,10,-14,-7
97,1066,116,12,19,-54,-87,-73,-21,-10
127,1373,76,-14,-14,-60,-94,-42,-4,61
125,1762,10,-12,-11,-16,-63,-27,-64,44
115,2104,68,31,0,-24,-77,-78,-151,-102
98,2356,59,32,-9,-45,-106,-92,-169,-157
-75,2266,-56,-5,-7,-24,-57,-62,-152,-150
-99,1936,-121,-77,-36,-43,-36,-4,15,149
211,1467,-98,-78,-62,-78,-74,-22,92,458
334,686,36,-29,-40,-63,-74,-57,-1,318
140,-232,-33,-21,-13,-18,-19,-12,-21,97
-80,-1107,-108,-12,23,8,14,17,-19,-107
-125,-2647,-84,-28,50,75,155,169,113,-108
-57,-2802,-44,-11,51,67,136,158,94,-95
96,-2518,72,18,48,21,64,76,-10,-172
198,-1996,98,11,16,-56,-26,-3,-83,-133
149,-1216,108,48,42,-45,-63,-76,-145,-114
-132,-309,77,45,71,8,-24,-29,-42,-163
-251,546,34,5,42,-2,-2,7,59,-161
-121,1450,39,25,46,-7,-16,-26,-12,-103
-28,2187,54,43,41,-8,-40,-52,-67,-90
-28,2353,42,18,19,-2,-7,-25,-57,-48
-114,2059,-44,-28,16,33,71,48,9,18
-223,1835,-161,-66,19,55,120,111,64,51
-123,1379,-192,-100,-11,31,123,119,113,132
86,683,-206,-95,-31,-19,60,66,107,183
254,50,-105,-44,-36,-76,-68,-54,6,105
261,-657,125,29,-9,-86,-129,-148,-165,-89
71,-1484,160,42,22,-42,-64,-45,-107,-125
-36,-2128,48,13,16,-14,-3,58,-34,-5
135,-2327,-17,-31,-52,-73,-50,66,20,148
137,-2379,-43,-61,-55,-21,7,162,197,194
-42,-2251,-123,-52,30,128,184,252,255,131
39,-1754,-11,33,61,95,103,28,8,63
85,-1238,194,127,43,-9,-81,-177,-127,-33
61,-634,188,91,14,-31,-87,-126,37,14
68,81,105,74,16,13,-10,-85,107,68
-52,627,18,65,58,71,39,-48,0,-7
-108,743,41,19,46,50,8,-67,-61,8
-89,440,39,-16,4,-12,-53,-90,-78,-18
-50,-221,62,-12,-12,-25,-79,-50,-104,-182
8,-1371,60,4,-3,-7,-50,30,-53,-214
65,-2690,77,15,16,13,-15,123,65,-159
243,-3749,83,0,7,-4,-10,170,177,19
232,-4814,38,-37,-13,-11,19,134,180,55
190,-5722,51,-23,6,6,11,34,50,64
195,-6345,14,-16,27,21,33,22,59,188
19,-6598,-118,-48,26,60,124,104,175,214
-137,-6593,-54,-21,9,25,72,21,98,44
-262,-6272,35,62,65,37,57,-54,-18,-151
-233,-5680,43,79,101,77,87,-22,43,-167
-169,-4896,-8,58,67,66,83,7,80,-106
-103,-3974,-28,56,52,38,39,-27,-13,-112
20,-2977,54,35,22,-12,-32,-93,-120,-85
25,-2403,-32,-21,-30,-19,-19,-68,-78,80
-92,-2392,-111,-37,-25,23,28,-12,-31,107
-52,-2688,-8,0,-6,-1,-28,-41,-31,-16
-26,-3244,100,49,10,-3,-68,-52,-29,-172
-55,-4127,83,58,39,29,-4,12,-13,-192
-11,-4806,26,8,4,-14,-5,29,49,-7
44,-5250,16,-9,-23,-37,2,20,81,48
49,-5504,22,-7,-11,-31,27,23,64,-19
-71,-5512,4,4,2,12,66,101,88,-74
-102,-4987,-52,-31,-25,12,93,145,103,-37
-86,-3844,-134,-82,-53,10,114,151,107,47
-40,-2340,-223,-130,-43,53,164,179,145,158
9,-628,-227,-80,16,133,203,155,40,71
136,1415,6,30,2,8,-37,-67,-166,-88
222,3627,266,128,-24,-151,-257,-255,-231,-108
118,5739,150,61,-42,-109,-174,-173,-138,-5
8,7066,23,11,-43,-71,-104,-109,-106,4
-128,7861,-14,13,-6,-20,-44,-54,-81,-52
-217,8005,-64,-17,-9,33,19,8,-59,-24
-193,7869,-43,-12,-22,22,-22,-26,-128,-49
-109,7449,48,58,5,15,-57,-61,-177,-40
27,6913,30,55,-6,6,-40,-49,-163,53
190,6377,61,8,-49,-48,-74,-58,-103,151
271,5782,84,-5,-89,-114,-131,-52,55,195
246,5111,24,-31,-82,-75,-73,0,120,95
155,4517,-41,-26,-30,6,13,60,115,18
66,4255,26,-19,-23,-16,-16,14,92,2
-137,4064,-44,-45,-16,14,36,49,81,-31
-206,4058,-45,-24,7,44,67,26,-22,-40
-114,4129,63,34,11,-8,-2,-54,-91,-9
-115,4144,33,16,-3,-26,-24,-52,-54,16
-18,4121,3,6,-10,-12,-29,-73,-57,50
35,4031,-6,-9,-15,9,0,-42,0,45
-32,3836,-44,-28,-14,33,32,31,89,-32
-39,3576,0,5,-10,32,-19,1,29,-92
-66,3202,66,45,10,12,-42,-39,-31,-119
-53,2558,32,31,-5,-9,-29,-21,-11,-51
38,1392,-9,-11,-56,-42,-3,0,47,119
79,-46,19,-1,-33,-33,14,7,48,136
139,-1523,41,18,-7,13,30,38,10,93
137,-3030,-20,-11,-7,31,57,81,62,129
22,-4349,-54,-25,-9,26,51,71,38,77
-6,-5139,-31,-20,-11,7,32,15,-75,12
77,-5370,-19,-9,6,25,50,1,-132,77
152,-5245,-37,-65,-42,-41,-3,-43,-127,171
76,-4793,-31,-72,-51,-72,-46,-83,-158,41
-40,-4134,-47,-42,-18,-28,-21,-77,-171,-153
48,-3390,-117,-42,-17,-23,-27,-93,-24,68
85,-2547,-110,-41,-8,-2,17,-32,217,289
29,-1680,-22,6,26,-1,18,-53,148,178
-101,-1061,36,28,23,-10,-6,-110,-13,-19
-259,-829,-8,14,26,7,9,-75,-29,-177
-261,-828,0,29,67,42,34,24,46,-225
-222,-1149,11,57,103,102,87,216,138,-164
-166,-1754,41,92,113,104,94,271,118,-173
-4,-2248,108,100,85,54,44,220,122,-102
62,-2717,74,70,72,53,86,170,164,-34
86,-2975,1,0,45,48,124,102,203,48
107,-2927,-80,-70,-14,3,96,41,208,109
16,-2689,-71,-56,-3,-6,50,-36,48,15
-108,-2028,-4,8,14,-31,-21,-105,-85,-55
-152,-1264,51,31,17,-16,6,-58,-2,-9
-193,-222,-22,4,15,9,44,5,39,9
-74,919,-24,-14,-9,-13,8,-34,-40,-9
35,2000,37,27,13,-11,-20,-75,-103,-42
-14,2877,-46,0,20,23,23,-32,-123,-56
-6,3522,-50,-49,-27,-26,-44,-63,-166,-81
122,3705,-58,-66,-56,-41,-91,-77,-149,13
227,3355,-66,-38,-52,-38,-111,-89,-130,102
184,2636,24,-5,-27,-35,-94,-48,-44,91
143,1589,136,37,-17,-54,-102,-5,86,98
74,339,112,58,21,-24,-64,18,67,79
99,-779,100,58,32,-22,-30,-1,32,135
136,-1862,109,49,15,-29,-39,-42,12,260
64,-2879,123,43,24,-3,-34,-49,-27,175
-59,-3677,86,51,54,36,18,-5,26,-58
-149,-3989,25,62,78,65,33,34,122,-174
-130,-3906,39,57,68,79,43,56,117,-154
-49,-3406,-66,15,35,51,36,33,50,-71
35,-2552,-135,-5,5,13,14,20,44,22
10,-1595,-79,-30,-11,-4,-28,19,56,34
-88,-497,-24,-28,-3,3,-44,12,-2,-67
-70,706,2,-18,-7,-6,-40,11,-3,-84
5,1689,1,-15,-22,-19,-46,-8,-4,18
2,2083,-101,-53,-50,1,-3,39,43,62
-49,2061,-123,-56,-22,59,71,89,39,16
19,1860,8,0,-25,-1,0,-7,-33,19
65,1178,59,30,-31,-30,-23,-22,-22,37
65,404,88,36,-30,-38,-24,-46,-82,-54
59,-362,67,2,-56,-65,-41,-53,-123,-62
43,-1910,-16,27,1,-16,20,-27,-114,67
11,-2182,-86,34,5,-28,12,-7,0,83
-47,-1962,-14,30,-20,-29,10,7,81,25
-47,-1487,-12,-9,-34,-15,34,45,97,22
-3,-569,-79,-48,-41,-1,55,61,83,89
-65,559,-95,-3,-15,12,68,-2,10,48
-113,1653,-136,1,-14,11,61,-13,-17,29
-81,2705,-78,-31,-46,-8,40,7,25,87
-118,3512,-127,-65,-11,74,123,68,43,82
49,4066,-61,-49,-23,40,46,-23,-108,34
129,4226,143,14,-61,-80,-107,-168,-284,-121
-122,3959,99,3,-23,-25,-16,-62,-236,-226
-81,3491,19,-44,-34,-9,4,4,-180,-158
100,2754,13,-57,-47,-27,-33,-28,-152,-6
135,1795,45,-23,-19,-18,-39,-35,-37,108
38,811,38,6,4,-10,3,60,143,109
73,4,55,11,-1,-10,-3,77,198,100
177,-580,134,43,13,-30,-27,11,124,29
168,-909,167,69,26,-17,-14,-15,31,-41
117,-985,134,65,35,9,-7,-3,59,-39
109,-777,13,18,18,21,0,7,40,43
141,-164,-98,-18,-26,-21,-25,-16,-6,93
73,425,-98,4,-15,-5,-20,-57,-92,-34
-117,1097,-42,8,17,36,28,-17,-101,-167
-301,1798,-101,-49,10,58,65,74,28,-119
-290,2313,-168,-109,-30,43,48,78,50,-55
-198,2377,-136,-86,-42,27,20,49,23,-44
-132,2025,-1,-9,-31,-19,-39,-6,12,-49
-93,1469,76,32,6,0,-14,12,29,-71
0,519,79,48,18,8,27,27,37,-29
128,-650,49,5,-20,-32,9,-16,-20,30
196,-1705,25,-6,-26,-39,0,-67,-101,-13
227,-2723,10,-38,-64,-72,-20,-39,-59,53
157,-3706,-26,-48,-70,-74,-44,-20,-39,119
36,-4432,-62,-25,-38,-49,-32,0,-4,122
18,-4582,-14,-5,-4,-37,-39,5,35,115
17,-4355,61,34,40,10,-3,8,-9,30
-92,-3823,64,41,65,39,34,15,-29,-40
-219,-3028,25,41,94,69,48,14,-2,-85
-143,-2129,9,57,109,101,31,-4,-7,-74
-5,-1097,18,45,52,45,-38,-73,-102,-83
-27,-134,51,68,50,43,-71,-133,-280,-252
-42,548,-51,23,12,28,-49,-68,-191,-173
37,729,-176,-62,-26,18,13,31,14,156
156,567,-37,-49,-57,-43,-74,-22,-13,333
2,-44,51,2,-31,-32,-102,8,-16,136
-73,-938,49,34,2,24,-5,108,60,-9
47,-1749,102,63,-4,6,-18,30,57,-45
47,-2534,80,29,-29,-4,-5,-17,58,-69
-62,-3274,18,-17,-21,-5,24,26,136,-155
-134,-3888,36,6,20,32,79,101,168,-248
-138,-4085,37,17,46,66,110,159,96,-261
-144,-3900,-2,21,66,78,114,124,-10,-265
-131,-3397,-4,29,56,55,82,48,-50,-246
-43,-2528,15,9,24,4,26,-28,-28,-132
-25,-1564,-59,-39,-14,-21,12,-54,62,-12
-30,-510,-71,-22,-3,-24,-20,-87,83,-27
-29,591,15,1,-3,-18,-55,-89,87,-81
4,1556,61,9,8,18,-46,-50,95,-20
98,2122,53,3,4,3,-23,-45,69,91
89,2110,-5,-40,-34,-25,-19,-47,89,158
-56,1692,-79,-36,-16,1,15,-39,94,91
-138,834,-111,-9,24,66,88,26,97,15
-63,-286,-59,0,48,82,122,51,60,-25
96,-1277,18,7,33,52,55,17,-12,-18
195,-2183,37,9,1,-14,-35,-29,-43,19
205,-2980,105,34,-2,-64,-96,-114,-148,-14
247,-3494,82,-7,-37,-82,-99,-113,-167,6
280,-3536,-87,-61,-68,-99,-71,-71,-126,54
197,-3155,-157,-68,-59,-63,-24,-19,-101,91
108,-2219,-69,-55,-49,-45,0,-48,-156,115
29,-1223,6,-19,-43,-57,-42,-79,-147,17
4,-25,83,34,-9,-26,-37,-43,-58,-78
-34,1264,26,64,49,31,19,-18,-96,-131
-130,2660,-107,17,55,70,56,30,-66,-114
-200,3796,-90,-32,14,35,26,46,30,-80
-284,4240,-42,2,42,55,54,66,91,-126
-334,4642,-37,22,66,72,70,114,170,-88
-179,4891,-44,25,36,26,18,78,123,-28
-66,4481,45,42,38,12,3,22,71,-1
2,3931,109,73,49,26,6,11,47,-9
118,3422,93,65,15,5,27,34,70,75
135,2797,3,6,-29,-27,26,29,69,165
133,2456,-54,-16,-53,-55,-13,-1,17,178
127,2344,-90,-40,-63,-71,3,3,12,155
150,2617,-68,-89,-94,-99,-28,-1,35,129
195,2963,41,-8,-42,-82,-82,-61,-59,26
118,3039,95,55,39,-5,-31,-24,-2,-49
41,2444,33,0,23,0,24,27,65,-13
9,936,42,-16,23,-11,27,7,-26,-79
-17,-860,54,-8,9,-46,-11,-37,-95,-126
-126,-2705,-21,-35,11,-39,-9,-20,-86,-132
-156,-4256,-197,-107,-25,-60,-5,27,32,3
-137,-5148,-302,-209,-74,-47,60,146,161,211
-152,-5173,-233,-172,-7,11,89,136,73,167
-14,-4638,-51,-14,38,-49,-39,-47,-114,0
-49,-4002,-36,36,41,-80,-68,-46,-106,-76
-54,-3104,-70,-4,10,-53,-2,14,-16,-5
24,-2437,18,-5,1,-51,-6,-2,-42,-43
56,-2430,35,23,20,-24,11,5,-52,-91
59,-3000,-31,1,21,-13,48,42,-21,0
100,-3786,1,-25,3,-30,29,17,-10,112
197,-4557,75,-20,-26,-85,-51,-81,-70,77
229,-5232,117,-22,-57,-109,-87,-95,-49,4
84,-5505,34,-53,-72,-65,-52,-8,91,-15
-59,-5333,-43,-45,-48,-30,-40,55,150,-28
-79,-4691,-7,-8,-17,-8,-42,97,118,-7
-95,-3671,59,30,13,30,-28,141,92,-11
-73,-2640,42,22,4,42,-18,87,55,0
0,-2051,11,-9,-8,26,-17,3,15,55
-2,-2013,-38,-42,-15,39,4,-2,43,41
-13,-2259,22,-12,-11,50,5,-16,72,30
-4,-3122,77,20,13,74,3,-29,39,25
-14,-4271,58,19,31,90,51,-4,4,21
31,-5359,48,17,14,64,68,-5,5,49
51,-6272,82,50,33,52,47,-38,-75,-50
87,-7063,134,59,40,24,11,-55,-95,-125
82,-7417,102,17,16,-15,-6,-43,-56,-98
-8,-7080,-4,-42,-22,0,53,24,14,-55
50,-6129,-38,-91,-66,-20,25,13,80,78
99,-4820,28,-36,-39,-21,-44,-34,41,53
76,-3303,101,34,19,14,-35,-30,9,-6
162,-1783,93,27,4,-4,-26,-45,1,55
-17,-274,-20,4,-2,10,6,-27,21,0
-287,1206,-65,-25,-8,38,46,0,1,-126
-252,2504,-52,-39,-14,39,50,0,-11,-122
-154,3226,-27,-13,-6,34,26,3,-52,-129
-88,3462,-53,-32,-35,15,20,82,2,-61
25,3367,-103,-86,-76,-27,4,124,83,128
179,2835,-144,-63,-43,6,26,97,104,280
242,2182,-116,-27,-9,49,58,67,117,327
104,1517,-133,-75,-62,8,37,55,133,291
-130,857,-127,-54,-4,72,107,53,16,16
-216,258,-60,23,64,118,133,34,-33,-175
-133,33,-121,14,51,115,132,65,51,-55
145,559,-75,-15,-18,4,10,-11,16,112
319,1154,232,67,-60,-154,-217,-224,-172,13
-18,1728,251,127,15,-80,-169,-189,-212,-243
-256,2477,176,120,60,14,-43,-90,-183,-319
-207,3339,86,55,29,17,-4,-44,-112,-194
-161,4104,57,51,33,30,7,-60,-117,-128
-134,4766,46,49,45,67,47,-22,-90,-78
-109,4906,-20,-8,6,59,26,4,-58,-29
28,4491,-59,-45,-35,12,-38,-46,-64,66
118,3697,-98,-72,-45,7,-19,-20,-2,118
56,2613,-85,-57,-16,60,64,62,55,49
84,1281,-16,-12,-15,20,29,3,-19,19
144,-77,37,6,-18,-23,0,-51,-70,3
36,-1389,-9,-29,-50,-38,9,10,33,37
-64,-2582,-3,-31,-60,-88,-39,-1,56,28
-105,-3471,68,27,1,-55,-43,-44,-48,-54
-89,-3879,43,66,70,35,4,-6,-60,-87
-55,-3982,27,81,97,96,65,55,-34,-102
13,-2690,7,59,74,105,92,78,-8,12
-32,-927,-133,-12,36,103,106,83,-43,92
-117,-750,-59,-14,10,70,33,5,-134,22
-41,-887,-44,5,-10,21,-45,-59,-148,-16
79,-771,27,-8,-39,-7,-66,-59,-137,-41
281,-371,145,3,-97,-117,-195,-138,-94,-9
302,-21,149,11,-83,-116,-221,-142,-20,25
-1,62,40,17,-7,-3,-86,-21,37,-52
-204,-104,3,33,33,43,-18,-4,-23,-174
-110,-624,35,36,24,26,-16,24,126,-108
19,-1511,53,35,15,11,-16,48,228,13
-48,-2532,-105,21,16,23,18,62,230,-22
-142,-3610,-146,-11,10,36,59,101,163,-94
-153,-4635,-134,-66,-20,27,64,132,133,-21
-44,-5384,-168,-90,-38,8,44,109,160,101
97,-5397,-62,-72,-40,-14,10,61,162,168
35,-5000,20,-22,0,24,49,65,90,22
15,-4075,68,40,35,76,82,70,69,-67
32,-2769,137,112,85,104,44,29,3,-49
4,-1579,186,140,77,37,-64,-54,-62,-8
-60,-414,161,114,44,-8,-107,-75,-53,-29
-31,649,57,48,8,-18,-99,-62,-14,48
29,1336,-19,-15,-45,-35,-95,-23,85,187
12,1353,-23,-21,-37,-23,-61,14,137,119
-19,947,-7,9,-5,14,-23,48,114,-15
14,372,82,45,12,0,-59,-31,-51,-176
20,-467,116,63,13,-4,-55,-52,-98,-221
-70,-1296,51,51,22,31,28,1,-51,-120
-63,-1872,-14,3,-4,26,60,41,26,44
-14,-2316,-50,-18,-16,25,48,58,56,82
-38,-2651,-93,-44,-17,31,56,93,50,18
4,-2560,-56,-33,-20,5,23,36,-11,-2
109,-2070,91,46,3,-18,-50,-101,-143,-38
68,-1439,112,94,21,3,-35,-89,-127,-55
-30,-493,36,72,4,15,-17,-40,-25,4
-34,576,-5,51,-2,8,-28,-58,-15,5
-21,1645,-16,25,-15,-9,-55,-84,-51,-8
-34,2804,-36,-7,-34,-5,-51,-69,-38,29
-30,3855,-60,-20,-44,-2,-15,-56,-36,102
6,4443,-71,-46,-69,-24,-13,-70,-48,151
75,4546,-123,-94,-115,-55,-19,-56,-23,206
-52,4267,-179,-100,-68,5,55,9,-33,83
-90,3610,-75,-40,-33,3,41,11,-72,-32
67,2706,85,46,-23,-53,-35,-20,-100,-106
167,1904,106,55,-3,-47,-24,60,-22,-71
69,1109,89,67,14,-41,-7,36,-42,-114
-46,346,44,47,13,-22,31,0,-55,-150
-25,-158,26,25,19,2,66,12,45,-78
22,-191,-10,23,31,22,91,33,132,-21
23,77,-142,12,46,48,121,55,177,59
-36,530,-156,-31,30,42,119,34,134,60
-36,1352,-16,-17,3,-5,24,-50,-10,-24
-8,2164,41,0,-1,-27,-20,-80,-50,-50
12,3036,22,13,24,-18,-19,-43,-41,-14
-35,3920,25,35,55,12,-12,-23,-80,-38
-3,4615,41,25,44,14,-18,-36,-126,-28
8,4736,-105,-71,-25,0,0,25,-34,134
55,4376,-155,-109,-64,-22,-5,20,-24,214
191,3844,96,9,-24,-74,-132,-154,-232,124
110,2761,92,22,0,-56,-124,-147,-160,132
-63,1404,-103,-57,-19,-20,2,27,153,198
-159,203,-167,-106,-49,-26,49,89,306,185
-44,-779,-96,-98,-66,-50,28,55,253,211
56,-1644,-75,-57,-84,-94,-9,-5,163,199
142,-2190,1,-26,-78,-114,-29,-85,24,78
139,-2264,41,35,-27,-69,-31,-124,-115,-110
27,-2113,31,62,21,-38,-16,-129,-192,-287
-23,-1643,82,36,33,-12,7,-68,-185,-240
-71,-938,15,14,38,22,49,25,-116,-98
-115,-190,-39,11,41,21,21,85,-9,19
-175,695,-63,46,63,49,3,110,3,4
-101,1639,-38,31,52,57,-9,79,-12,100
-5,2288,-5,-38,-7,11,-25,35,-6,208
71,2396,1,-60,-43,-23,-41,-17,-8,190
54,2181,1,-40,-20,-17,-57,-68,-7,33
17,1670,-95,-25,4,8,-33,-41,69,-49
26,794,-50,-19,28,56,33,49,114,-58
73,-43,14,-25,28,44,51,70,67,-37
46,-812,2,-54,-14,-6,39,70,92,39
-15,-1513,-35,-70,-14,14,91,143,172,140
37,-2019,-77,-86,-11,20,93,158,210,232
74,-2187,-118,-71,46,57,111,157,171,177
286,-1886,105,17,20,-49,-54,-30,11,58
271,-1490,308,132,32,-108,-183,-173,-155,-95
88,-928,232,84,38,-63,-125,-67,-37,55
-97,-220,46,0,39,5,-17,43,15,133
-286,501,-35,-18,52,57,39,41,-80,-2
-342,1262,-19,19,40,49,13,11,-140,-115
-324,1813,-20,-3,9,22,0,5,-123,-119
-248,1945,-8,-9,13,11,-19,-21,-93,-150
-160,1592,-17,-2,21,32,5,16,7,-127
-164,897,-106,-49,17,92,120,161,184,-25
-17,-18,-139,-89,-12,58,76,166,169,74
277,-1023,-28,-19,-18,-4,-36,16,-50,75
394,-2032,-52,-8,-29,-47,-61,-9,-8,163
360,-2981,-121,-109,-101,-109,-28,33,116,365
119,-3839,-77,-130,-100,-105,13,49,69,267
-123,-4560,-101,-46,20,20,123,87,39,80
124,-4466,7,-6,22,-1,35,6,64,201
128,-4182,67,3,-3,-39,-10,-31,44,69
-86,-3705,200,104,47,-36,-56,-141,-108,-304
-301,-2954,286,218,160,67,-12,-84,-121,-484
-266,-1972,232,172,127,52,-24,-52,-114,-388
-176,-854,179,117,61,3,-56,-67,-122,-304
11,332,62,67,17,-23,-69,-55,-82,-153
130,1264,-63,16,-20,-34,-60,-36,-28,-7
61,1588,-63,12,-28,-37,-83,-39,-26,6
45,1565,-9,-16,-31,-25,-60,-41,-44,18
50,1154,-51,-55,-19,15,31,7,-22,43
-107,401,-121,-46,9,67,91,54,-18,24
-355,-597,-154,-14,62,134,163,78,-74,-108
-372,-1353,-197,-76,33,137,206,118,-56,8
-75,-1953,-243,-120,-55,7,100,50,-14,248
179,-2443,-73,-77,-116,-157,-79,-98,-21,321
269,-2645,212,56,-32,-160,-156,-209,-121,207
267,-2418,214,71,-18,-133,-132,-99,25,140
108,-2045,100,50,-3,-82,-69,56,84,-65
-3,-1426,103,90,43,-33,-49,78,-33,-297
-111,-674,136,77,56,16,-3,108,16,-234
-135,22,62,13,21,26,18,129,119,-19
-66,1352,91,24,23,25,-6,51,67,-1
-21,2051,116,57,45,38,-10,-20,-10,-62
-118,1970,-37,32,49,69,39,25,38,-31
-109,1658,-77,10,46,74,39,33,38,60
51,1399,114,51,29,5,-62,-87,-94,3
114,629,184,81,37,19,-40,-60,-82,-53
69,-778,115,36,16,18,3,-12,-8,-1
-56,-2137,23,16,11,0,13,-32,-36,-64
-73,-3358,26,13,25,20,65,-21,-53,-104
-51,-4301,61,24,47,42,114,3,-54,-69
-63,-5190,54,31,44,55,106,3,-102,-93
-45,-5468,36,21,23,44,80,9,-123,-85
-27,-5264,40,10,19,17,55,1,-90,-92
64,-4790,-3,-9,-7,-16,15,-13,-62,-20
114,-3890,-24,-21,-25,-36,-25,-8,29,124
38,-2825,-19,-40,-33,-48,-42,8,156,205
-57,-1722,-60,-38,-17,-26,-6,20,159,134
-92,-459,-97,-47,-21,18,50,60,134,55
-83,666,-72,-27,-19,34,47,39,96,-21
-99,1342,-33,-10,-17,17,19,0,64,-76
-132,1603,-32,-13,-7,24,29,3,38,-102
-82,1702,17,15,8,36,4,-31,-7,-104
8,1447,59,18,-33,-16,-48,-65,-62,-80
22,1004,15,-1,-60,-35,-35,-50,-86,-97
42,680,-61,6,-37,-35,-13,-42,-126,-117
105,355,-48,-9,-11,-26,3,-11,-103,-55
161,123,-25,-28,-5,-10,7,34,-12,38
169,173,-39,-34,-22,-31,15,102,106,95
76,609,-181,-92,-34,17,138,265,305,184
126,1327,-175,-94,-47,-3,89,198,295,244
165,2142,84,44,-18,-96,-101,-72,38,34
21,3189,187,129,38,-42,-87,-150,-109,-102
-7,4502,122,110,20,-18,-60,-140,-136,-10
-19,5886,76,92,9,-16,-40,-110,-112,0
-40,7205,45,80,24,6,-4,-58,-82,-46
-49,8141,-9,54,14,17,17,-29,-98,-41
43,8479,-48,2,-40,-37,-36,-39,-26,74
89,8433,-22,17,-37,-49,-71,-38,15,123
-106,7935,-137,21,16,17,4,-7,-68,3
-186,6969,-71,39,40,49,54,0,-114,-75
-64,5972,0,37,29,35,70,28,-10,-19
37,5073,3,10,0,-12,70,45,92,86
-84,4086,-124,-48,-13,16,156,136,195,161
-77,3471,-221,-61,-8,43,181,147,155,156
144,3200,-118,-29,-79,-88,8,-6,0,139
128,3214,-41,-51,-94,-97,-4,20,61,177
-3,3450,-102,-65,-38,30,128,132,128,154
-21,4016,-25,-14,-31,7,46,21,-10,-6
-41,4598,105,68,-8,-31,-69,-119,-141,-126
-31,4975,146,93,-1,-21,-101,-122,-133,-114
-47,5821,-143,-119,-105,-62,-97,25,30,80
35,5537,-80,-93,-89,-97,-182,-63,-11,183
86,4675,-17,-44,-43,-54,-157,-75,9,250
182,3517,-124,-138,-92,-36,-121,-12,133,401
140,1881,-80,-82,-13,56,-40,-16,3,158
-50,-182,8,9,56,128,86,41,-13,-139
-15,-2138,135,62,44,53,-11,-87,-91,-164
-22,-3983,297,166,116,37,-73,-208,-236,-273
-52,-5862,197,135,98,55,17,-107,-142,-219
-20,-7173,50,19,28,47,105,6,-12,-49
29,-8022,-130,-87,-18,65,182,135,129,114
79,-8357,-192,-116,-32,42,141,140,71,126
232,-8464,30,-18,-22,-56,-58,-35,-123,12
329,-8314,190,57,-2,-74,-147,-44,-162,-39
344,-7662,151,18,-23,-83,-151,-7,-63,68
272,-6999,70,-28,-37,-82,-121,-13,52,201
203,-6587,-52,-94,-63,-65,-94,-55,71,260
77,-6226,-127,-71,-23,-15,-49,-99,-25,63
-215,-6395,-68,8,91,113,52,-21,-36,-173
-301,-7117,25,45,111,122,28,-15,-72,-259
-7,-7567,140,65,52,-2,-109,-102,-180,-166
167,-7473,115,29,15,-49,-137,-48,-149,-36
264,-7090,53,-41,-45,-59,-116,7,-36,146
335,-6685,52,-73,-81,-97,-135,-51,33,270
117,-6306,50,-23,5,0,-7,-18,81,32
-191,-5929,-1,16,65,102,176,82,138,-177
-298,-5582,-57,26,69,103,196,110,108,-185
-280,-5256,31,73,86,79,137,82,32,-216
-235,-4935,53,29,59,65,137,117,110,-103
-240,-4626,-59,-66,6,43,126,109,90,-115
-210,-4341,-43,-30,31,64,100,44,-46,-202
-62,-4064,-16,29,66,78,69,-42,-155,-112
54,-3805,-59,10,23,12,-9,-107,-146,105
-114,-3578,59,43,31,8,-29,-97,-87,73
-235,-3359,90,47,48,58,19,-40,-71,-39
-205,-3156,95,50,36,35,-26,-75,-131,-128
-217,-2980,69,54,43,45,-26,-45,-153,-217
-192,-2815,42,34,26,53,-4,-1,-146,-264
-116,-2653,-5,-6,13,36,11,7,-170,-259
-26,-2502,-27,-44,-20,-17,21,6,-125,-189
41,-2356,-58,-88,-73,-81,-11,2,28,-60
51,-2209,-51,-69,-56,-87,-60,-13,122,44
45,-2085,-26,-22,-23,-68,-77,8,250,92
19,-1954,36,25,21,-45,-60,8,295,8
-77,-1818,59,50,92,18,13,61,336,-108
-37,-1686,37,42,86,10,19,103,387,-52
41,-1493,55,44,52,-27,-34,28,235,-43
62,-624,26,12,-5,-59,-65,-10,108,-30
83,1300,-18,-21,-44,-73,-80,-33,43,16
49,3563,-68,-42,-66,-64,-54,-25,35,26
82,5497,-79,-57,-74,-56,-45,5,89,60
100,6638,-64,-28,-45,-31,-30,7,78,67
8,7219,-98,-3,14,17,34,20,16,-23
18,7618,-43,13,2,-47,-29,-50,-70,-106
-29,7462,-62,49,12,-45,-23,-47,-81,-166
-12,7004,-140,9,-7,-24,24,13,-32,-100
33,6682,-162,-75,-50,-45,48,63,25,27
105,6419,20,0,-32,-83,-8,-19,-86,2
45,6114,84,54,33,-15,52,-3,-151,-82
-45,5631,-110,-66,-5,22,139,127,-47,11
-10,5647,-192,-136,-76,-44,77,106,-23,151
135,6076,-197,-152,-105,-86,5,29,-13,345
322,6835,52,-9,-65,-129,-149,-193,-211,236
213,7607,207,114,14,-98,-164,-204,-188,29
25,8461,96,67,31,-50,-75,-72,-27,-27
-46,9276,-3,-3,12,-15,-36,8,62,-91
-107,9828,-137,-66,-6,42,47,156,221,-15
-93,10030,-138,-93,-62,-9,-2,107,111,-65
-10,9685,40,-3,-44,-88,-136,-92,-135,-174
111,8971,85,55,11,-63,-105,-118,-209,-141
260,8032,63,19,-10,-74,-75,-118,-195,-44
232,6632,54,0,-46,-99,-93,-116,-103,31
90,5066,58,2,-13,-40,-24,-19,88,105
83,3529,24,0,18,24,17,67,172,198
-32,2002,-14,2,42,84,94,128,140,141
-201,489,-10,35,72,115,130,107,27,-24
-282,-778,-46,20,66,99,106,80,-34,-74
-270,-1547,-143,-50,51,116,150,129,5,23
-4,-1906,-6,-14,28,32,7,-69,-173,50
161,-1824,174,50,-19,-80,-137,-215,-209,57
-61,-1676,54,0,-20,-4,-1,-14,40,143
-176,-1487,-72,-54,-4,56,45,36,84,168
-127,-822,-30,-38,-21,16,-59,-105,-34,23
-106,-68,-23,-36,-42,8,-86,-106,-3,-76
-48,255,-37,-24,-29,45,-63,-22,55,-17
-41,-238,-81,-15,12,106,3,89,6,0
-31,-1179,-18,28,42,100,-2,171,-81,-95
97,-2328,102,52,15,58,-15,198,-40,-86
368,-3505,141,32,-27,-11,-54,60,-58,9
413,-4848,89,8,-22,1,-18,-20,-56,28
377,-5911,32,12,-5,34,10,-39,88,48
431,-7093,98,2,5,32,22,-18,319,189
459,-8052,140,-29,-30,-24,-49,-55,292,309
122,-8736,23,-68,-14,22,36,5,208,235
-287,-8847,-75,-58,46,126,188,96,139,41
-259,-8430,-7,-4,47,101,153,55,52,8
-196,-7774,111,74,60,72,85,-12,-70,-105
-256,-6891,91,63,67,81,77,-29,-161,-217
-179,-5596,-2,-22,-5,32,1,-43,-130,-94
-19,-3877,-45,-63,-65,-30,-108,-110,-129,38
-38,-2812,16,9,1,29,-80,-127,-249,-118
-115,-2254,3,24,68,111,29,-36,-192,-180
-53,-2277,1,27,75,84,20,-38,-69,-76
-59,-2521,-19,5,54,57,1,28,131,24
-172,-3176,-95,-35,69,128,100,157,200,-15
-10,-3631,66,7,44,41,0,57,62,-75
46,-4001,175,58,26,-1,-36,24,97,-13
-18,-3996,69,26,18,41,27,84,151,74
-9,-3568,-24,22,13,37,34,62,87,35
5,-2746,-103,-1,-5,10,34,43,60,-47
-115,-1443,-72,-20,-20,11,77,89,101,-95
-236,-49,-114,-29,33,119,203,190,137,-40
-90,1700,-215,-45,23,96,153,127,117,214
160,3523,28,-12,-89,-140,-173,-165,-55,277
-3,5099,178,62,-30,-115,-173,-179,-129,-36
-190,6723,63,49,12,-20,-38,-44,-84,-214
-188,8399,-69,4,0,4,-10,17,-55,-154
-111,9774,-54,6,-17,-1,-25,-3,-63,-28
-62,10284,-35,28,-10,5,-27,13,-13,64
-37,10144,-60,12,9,27,19,69,22,91
-15,9631,-132,5,16,30,51,93,25,77
13,8798,-18,60,20,-29,-32,-35,-108,-68
-34,7823,138,107,36,-52,-72,-103,-164,-159
-74,6848,116,99,37,-25,-33,-53,-115,-151
2,6055,109,85,39,-16,-13,-25,-79,-133
197,5527,89,41,-3,-25,1,18,61,38
272,5307,70,13,-26,-40,16,31,119,148
115,5405,47,10,-20,-53,42,24,81,91
6,5458,40,29,0,-35,12,-4,-8,0
21,5818,39,23,19,-10,-11,-36,-66,-56
18,6144,9,-3,17,-10,-15,-22,-18,-5
-39,6339,-51,-17,20,11,15,11,42,36
-88,6583,-103,-34,33,53,70,18,-5,11
9,6761,-36,-9,7,-1,9,-46,-75,-24
-31,6557,-5,4,-15,-30,-12,-41,-66,-87
-55,6029,-146,-74,-33,1,36,70,25,40
86,5385,-283,-140,-91,-24,42,115,132,273
206,4501,-241,-141,-115,-61,34,81,118,270
305,3354,-43,-62,-48,-25,38,14,-22,135
433,2215,74,30,18,-2,-30,-109,-191,102
335,1048,236,113,2,-127,-233,-325,-341,-77
127,-156,222,100,-24,-162,-202,-226,-139,-114
-20,-1125,53,-10,-59,-126,-84,-60,95,100
-74,-1592,41,-17,-57,-111,-79,-83,35,165
-178,-1874,42,6,-18,-55,-16,-25,-16,-27
-296,-2018,-7,8,13,8,64,114,64,-137
-389,-1838,-50,4,42,59,133,248,117,-177
-328,-1452,-64,-2,48,84,143,246,33,-156
-218,-998,-23,19,58,94,120,169,-18,-142
-46,-358,46,30,24,25,0,51,-44,-130
46,77,103,54,31,14,-47,-17,-63,-151
44,67,84,34,26,36,-33,-48,-63,-91
-13,-430,36,8,-2,45,-22,-56,-64,-43
-86,-1261,-52,-53,-36,35,9,-13,-4,-7
-92,-2684,-143,-60,-26,47,74,13,-93,129
33,-4128,-44,-11,-12,38,58,-40,-236,267
238,-5432,24,-25,-37,6,22,-90,-255,279
282,-6494,-81,-113,-86,-36,35,-44,-30,310
139,-7535,-140,-146,-84,-41,56,33,245,235
95,-7957,45,-27,-40,-63,-23,1,327,54
-2,-8178,178,70,6,-56,-55,-21,255,-117
-43,-8017,149,83,42,-7,-15,4,176,-149
-73,-7431,24,29,62,61,59,102,235,-62
-112,-6498,-87,-14,58,97,121,171,242,-14
52,-5257,54,9,35,47,59,76,97,-69
218,-3924,116,31,29,20,12,38,8,-103
222,-2719,69,58,32,8,-26,-23,-71,-55
167,-1703,-43,-25,-35,-41,-72,-59,-4,12
213,-1143,-84,-108,-90,-67,-78,-18,92,131
189,-933,-29,-67,-71,-48,-99,-36,15,131
97,-1039,-65,-35,-31,-19,-58,-20,-17,135
-5,-1625,-81,-25,-4,8,0,19,1,172
-57,-2059,-55,-39,-34,-14,-8,12,12,134
-115,-2176,-101,-70,-53,-24,6,38,90,120
-225,-2259,-73,3,34,44,69,47,68,7
-286,-2072,67,92,107,72,62,23,-35,-220
-319,-1505,23,66,109,100,125,84,-15,-319
-114,-366,-49,11,58,81,145,102,40,-133
100,1352,80,58,27,-17,-27,-85,-144,-87
44,3088,174,122,37,-58,-120,-191,-254,-172
20,4561,63,46,0,-61,-106,-117,-96,7
19,6055,-41,-28,-40,-67,-82,-49,28,162
-144,7358,-36,-23,-19,-32,-48,-63,-52,-26
-297,8421,-44,-7,16,2,-30,-90,-145,-218
-128,8979,-244,-97,-102,-65,0,234,82,-32
-131,8161,-262,-106,-74,-5,106,299,95,-51
-59,7246,-133,-75,-43,14,127,227,72,-45
218,6393,75,-2,-59,-98,-48,-34,-4,32
291,5503,70,3,-54,-111,-80,-106,2,118
293,4884,-41,-38,-54,-81,-43,-87,-28,173
178,4428,-51,-29,-30,-43,-11,-66,-90,116
-27,4116,-135,-26,-21,-33,14,-20,-91,52
-234,4013,-117,-43,-13,-24,61,0,-52,-30
-188,3961,-53,-66,-49,-41,57,8,95,47
-112,3942,-111,-95,-48,-28,59,33,157,127
18,3951,-100,-82,-42,-29,4,-8,113,128
-13,3772,-17,10,19,15,-27,-16,-6,-54
-88,3243,7,47,63,68,-1,87,53,-152
12,2503,101,53,37,7,-61,37,-42,-136
42,1543,110,24,-12,-60,-113,-45,-127,-124
76,210,8,0,-3,-36,-52,-35,-103,-81
188,-1167,-27,8,17,-8,-11,-66,-79,3
258,-2526,97,11,-10,-35,-4,-81,72,89
152,-3899,100,-6,-33,-50,18,-18,167,75
3,-5107,-41,-61,-13,2,106,72,175,136
131,-5659,-92,-119,-26,-6,83,53,100,314
106,-5893,26,-53,-9,-39,-14,-42,-56,202
-113,-5854,113,43,48,-18,-41,-87,-143,-36
-277,-5317,118,106,123,77,23,-52,-216,-278
-285,-4374,50,100,130,109,62,-17,-155,-339
-244,-3332,42,65,107,113,60,47,81,-235
-107,-2128,81,71,79,94,11,22,81,-201
106,-956,119,52,22,26,-74,-48,-9,-121
141,-225,57,7,-5,-14,-79,-59,0,19
15,-155,-46,-40,-23,-12,-51,-23,31,42
-58,-419,-199,-112,-46,41,30,88,114,70
95,-889,-132,-113,-66,17,-1,44,40,73
183,-1715,96,-13,-55,-67,-115,-97,-71,-8
-90,-2743,74,46,0,-4,-21,-28,-59,-44
-278,-3600,-45,16,40,71,113,47,-54,14
-183,-4234,-28,23,48,81,110,25,-37,44
-12,-4691,-4,-3,-3,8,48,17,88,88
33,-4834,-26,-37,-62,-64,-14,-17,83,20
20,-4718,-8,-45,-74,-100,-83,-89,-7,-102
7,-4393,-49,-45,-33,-36,-33,-35,22,-106
97,-3677,-26,-16,-21,-27,-52,-55,-44,-72
156,-2886,109,63,21,-52,-140,-202,-222,-135
144,-1950,54,79,21,-40,-130,-180,-154,-85
80,-845,-4,32,6,-13,-60,-42,21,9
-93,93,10,21,12,30,30,36,-7,-87
-119,597,3,-5,-2,41,43,83,5,-85
-29,611,-18,-40,-38,15,21,113,148,87
-56,311,-75,-61,-31,76,84,174,242,179
-13,-266,-123,-56,25,144,135,146,197,240
174,-866,29,-7,15,41,-8,-79,0,203
109,-1411,130,50,4,-32,-68,-139,-86,-15
33,-1802,90,35,15,-27,-13,-79,-22,-82
39,-2000,63,8,11,-12,15,-31,0,-65
96,-1943,4,-8,24,21,41,48,54,4
119,-1399,16,-1,42,47,61,104,54,21
52,-659,23,0,37,31,54,154,12,-3
59,512,19,1,20,-9,4,126,-22,11
86,1900,60,-24,-28,-60,-44,31,-33,9
-61,3215,70,-4,-9,-36,-32,-19,-47,-144
-147,4546,59,38,30,23,-3,-40,-50,-110
-140,5767,21,21,4,17,-26,-74,-36,0
-157,6583,-35,-16,-29,16,-38,-75,-54,-7
-161,6726,-160,-41,-24,36,-7,-44,-52,18
-25,6478,-189,-43,-21,13,-17,-48,-92,86
134,6069,-28,-41,-52,-61,-89,-115,-127,166
54,5121,-5,-31,-38,-34,-36,-88,-117,97
-43,4154,-15,-27,-19,-3,12,-54,-84,50
-74,3178,-11,-13,12,35,39,-39,-117,-69
-69,2081,-66,-47,-12,14,39,9,39,-58
96,1021,-8,-48,-66,-82,-25,-45,160,131
184,535,62,-4,-45,-75,-24,-36,129,154
173,404,27,-11,-35,-44,0,26,160,80
-7,669,-39,-21,12,36,75,71,113,-28
-202,1148,-66,13,100,137,138,93,-9,-116
-18,1909,46,35,52,32,-27,-69,-165,-68
102,2721,114,25,-28,-94,-166,-193,-256,-45
-32,3464,113,36,-5,-70,-149,-153,-217,-123
-126,4163,35,53,30,-17,-95,-28,-19,-93
-17,4583,-104,-13,-15,-17,-59,86,191,138
-40,4586,-48,-27,-5,4,-24,91,214,120
-46,4292,64,28,24,8,-39,-9,135,39
-109,3771,-4,38,16,8,-6,-42,109,52
-217,2891,-4,35,52,56,57,-52,45,-78
-200,2028,40,38,55,39,68,-82,-20,-122
-150,1242,65,26,34,8,24,-70,-30,-57
-99,533,46,-6,29,13,41,-4,13,-13
-9,-3,9,-33,-3,-4,66,33,39,27
8,-199,13,-10,2,-18,51,20,-33,-19
-23,-186,18,-5,11,-11,37,29,-47,-34
-39,-8,-50,-38,-8,2,73,102,1,8
-43,464,-186,-113,-70,-11,107,185,72,102
21,1052,-143,-86,-69,-27,55,111,17,94
33,1615,21,0,-24,-8,15,51,-8,3
41,2074,106,52,7,-17,-18,-28,-52,-33
-95,2337,68,39,28,7,5,-56,-139,-72
-133,2263,16,21,19,13,9,-56,-144,-11
-40,1746,43,27,1,10,-25,-21,-62,83
37,914,32,13,0,5,-38,4,-1,109
16,-454,-10,15,25,36,33,15,-12,14
6,-2087,-152,-43,19,101,161,147,55,47
254,-3462,-46,-61,-43,13,69,95,56,209
214,-4965,132,42,6,-18,-7,-13,-88,123
33,-6311,126,76,51,23,3,-9,-181,-42
108,-6979,120,47,-5,-36,-71,-49,-152,-43
203,-7223,65,-20,-52,-73,-75,-6,68,133
165,-7101,13,-32,-37,-29,-5,60,219,160
46,-6724,-28,1,-6,-13,18,48,153,79
-47,-6034,7,66,33,1,-6,-27,25,79
-109,-5177,50,73,30,16,3,-51,-127,146
-109,-4063,-68,-15,-23,26,19,-34,-195,199
-57,-2678,-111,-59,-74,2,-38,-63,-217,110
-37,-1455,-75,-47,-103,-65,-159,-89,-86,-35
-158,-704,5,-10,-54,2,-84,6,107,-177
-238,-195,12,41,20,119,57,94,237,-251
-186,25,1,68,46,151,125,175,309,-192
131,-80,29,39,-20,26,-4,52,179,-6
256,-268,-15,7,-80,-76,-116,-86,8,75
86,-500,-59,-35,-74,-40,-18,-9,51,100
97,-593,6,-37,-41,0,42,-9,-23,127
137,-520,16,-5,-22,5,26,-34,-97,89
166,-260,-23,-1,-20,-10,2,-4,-8,89
219,365,24,33,-24,-80,-86,-17,51,61
47,974,159,80,18,-60,-92,25,78,-57
-208,1794,94,83,69,23,4,143,88,-122
-319,2710,54,99,114,90,98,153,-2,-216
-221,3636,55,91,86,70,70,54,-59,-148
-89,4593,28,42,25,18,-17,-30,-55,17
-60,5247,7,25,7,12,-28,-78,-60,50
-87,5426,-26,18,1,17,-13,-78,-64,-5
-82,5097,-100,-32,-29,-4,-18,-45,-26,30
-29,4502,-24,-38,-29,-9,16,-17,-11,34
48,3553,31,-5,-12,-1,35,5,-25,-23
159,2296,77,11,0,-12,25,-11,-44,-22
169,1009,51,9,4,5,62,23,-20,-6
17,-399,-143,-75,-11,56,171,192,125,49
90,-1702,-219,-143,-42,53,200,223,145,198
328,-2440,-21,-93,-101,-136,-37,-34,-32,240
239,-2872,122,6,-38,-129,-87,-115,-93,118
143,-2842,109,14,-8,-54,-8,-61,-93,29
43,-2475,92,0,-38,-83,-62,-107,-87,-13
-53,-1786,59,8,-23,-54,-52,-60,-38,-96
-85,-998,-25,-36,-29,-34,-4,2,11,-128
-70,-82,-35,-34,-35,-35,-13,-22,-24,-156
-125,827,30,28,13,-2,-3,-47,-119,-278
-225,1490,-19,12,45,51,52,8,-86,-203
-103,1781,-19,-6,4,29,-23,-29,-76,-5
-24,1698,54,52,20,13,-94,-110,-133,-71
-22,1281,64,66,50,37,-52,-93,-86,-117
-32,482,53,54,53,50,-8,-47,-46,-113
-26,-344,12,16,13,26,4,3,19,-83
-75,-1202,-59,-46,-12,13,19,46,118,-64
10,-1880,7,-27,-20,-26,-28,26,109,15
127,-2320,58,-2,-31,-38,-32,53,115,148
125,-2432,-37,-46,-35,-23,12,137,190,186
93,-2093,-64,-65,-26,-11,15,151,144,99
172,-1457,-52,-32,-28,-40,-24,61,37,47
149,-617,-64,-4,-43,-81,-88,-44,-39,66
2,336,-47,-8,-28,-35,-58,-57,-42,42
-146,1327,-60,23,6,3,-38,-77,-65,-92
-188,2416,-33,45,31,39,-29,-88,-103,-157
-171,3304,-107,9,28,34,-21,-48,-105,-132
-78,3914,-31,-27,0,-7,-57,-55,-108,-87
-51,3988,-20,-5,6,-5,-55,-51,-117,-85
-28,3665,-49,-18,-16,-25,-56,-8,-15,85
47,3000,-8,-40,-41,-38,-31,63,135,260
114,1965,33,-3,-18,10,42,103,154,238
13,842,73,47,45,82,89,106,93,26
-152,-213,65,65,81,116,112,91,1,-175
-113,-1204,21,18,47,78,94,64,3,-97
-64,-2076,-8,-22,6,22,69,73,53,-6
-41,-2505,-38,-40,4,25,85,105,103,21
-23,-2552,-60,-36,8,36,86,90,79,1
89,-2298,65,32,31,0,-10,-35,-12,-2
77,-1721,79,66,44,8,-47,-80,-54,-66
99,-1049,3,12,-2,-4,-57,-51,-39,-32
126,-306,-13,-47,-50,-44,-67,-58,-57,64
86,542,-9,-52,-51,-45,-48,-105,-125,61
28,1245,25,-8,-17,-41,-51,-138,-213,-28
-23,1505,19,0,-11,-41,-47,-112,-197,-62
-110,1284,-7,-19,-18,-17,-3,-49,-100,-71
-162,786,4,-7,-7,-9,-3,-41,10,-110
-115,-59,-42,22,14,19,6,-7,143,-65
-109,-1105,-70,50,38,77,56,53,132,-95
-77,-1976,25,50,51,75,63,29,44,-139
-66,-2707,1,26,41,75,82,40,-4,-139
-109,-3315,-29,-3,22,73,105,72,-1,-122
-77,-3652,-12,3,1,32,40,25,-14,-62
-14,-3537,44,59,30,16,-19,-32,-43,-61
14,-3154,47,81,50,38,2,2,0,-84
84,-2402,49,40,15,31,17,63,139,-9
112,-1396,66,3,-13,-9,-14,73,229,59
-54,-496,6,-21,-3,-2,11,52,128,-24
-177,531,-89,-50,-19,4,58,64,46,-55
-54,1614,-102,-80,-53,-22,21,24,0,136
41,2514,-41,-64,-72,-81,-88,-80,-117,200
0,2831,-25,-21,-14,-40,-73,-104,-257,54
-8,2580,-84,-44,-11,-8,-21,-82,-274,44
66,2147,-90,-61,-35,-28,-27,-92,-207,80
154,1547,-32,-54,-49,-32,-51,-43,-37,-15
131,868,-3,-62,-72,-37,-45,31,131,-67
8,199,-92,-80,-49,11,67,176,325,-21
31,-380,-175,-95,-20,78,171,268,354,34
234,-726,-28,-46,-40,-26,15,95,235,24
388,-1024,178,65,-14,-105,-118,-66,137,61
457,-873,185,66,-31,-108,-144,-81,72,132
350,-195,136,52,-15,-65,-89,-46,10,130
100,340,69,13,-9,-60,-47,-25,5,137
-178,1145,31,16,17,-24,-12,-18,-14,-29
-365,1821,-24,36,85,89,75,29,-44,-276
-265,2679,-7,72,100,114,74,6,-91,-343
-185,3296,93,101,69,37,-11,-72,-159,-324
-267,3499,-54,4,12,16,11,-17,-75,-163
-316,3245,-195,-70,1,54,58,24,-47,-82
-200,2764,-26,0,13,6,-25,-32,-87,-164
-191,1884,79,86,68,28,-20,4,-51,-229
-124,622,39,86,85,60,14,54,-73,-185
55,-582,23,52,32,3,-15,51,-97,-99
231,-1799,-30,28,-4,-40,-17,63,48,25
297,-3017,-209,-69,-60,-43,41,96,201,172
233,-4121,-180,-110,-73,-35,56,79,228,219
244,-4735,22,-34,-62,-58,-31,-52,97,174
120,-4986,111,44,16,19,25,-40,75,94
-39,-4823,60,54,91,136,161,95,97,50
-93,-4153,0,9,70,120,137,100,34,-24
-125,-3303,42,16,25,41,-8,-9,-108,-141
-127,-2382,35,44,43,39,-34,-72,-189,-148
-11,-1268,75,66,56,42,-68,-146,-248,-119
-52,-461,52,48,26,26,-74,-135,-187,-121
-110,-193,-20,8,3,17,-10,-56,-56,-19
-91,-393,-27,-3,-5,6,1,-45,-45,-49
-84,-847,-59,-19,-4,31,16,5,38,-66
97,-1631,-56,-50,-66,-34,-52,7,125,100
201,-2626,-193,-145,-130,-69,-24,105,243,364
228,-3495,-270,-189,-137,-57,6,158,174,374
163,-4336,-50,-45,-45,-60,-47,13,-143,59
-10,-5144,114,80,28,-37,-49,-63,-270,-185
46,-5446,199,97,39,-33,-37,-90,-238,-171
64,-5279,119,50,19,-44,-38,-81,-84,-48
-27,-4851,32,63,48,-15,-26,-48,91,3
-27,-4052,22,42,60,28,8,1,153,44
-19,-2985,-15,-9,33,27,17,35,149,82
-89,-1923,-78,-48,4,24,50,57,132,25
-34,-752,-65,-52,-4,53,44,50,89,-66
48,394,-37,-21,-19,13,-30,-15,-5,-87
12,1189,-13,-7,2,3,-55,-62,-76,-43
30,1555,-70,-48,-15,-30,-56,-59,-9,133
-2,1525,-1,-18,4,-41,-38,-83,-56,73
-68,1119,33,-7,17,-9,-10,-67,-108,-46
-14,319,14,-5,6,0,30,-28,-34,-26
79,-555,62,20,19,23,57,-6,-33,20
140,-1375,55,-13,-11,13,70,58,62,140
-15,-2186,-40,-44,6,53,135,135,140,144
-68,-2801,24,21,28,50,96,95,112,31
63,-2955,165,97,43,4,-8,-8,70,-42
321,-2560,211,72,-10,-75,-100,-88,19,69
295,-1997,128,9,-64,-111,-113,-105,-26,114
63,-1217,76,-1,-20,-51,-60,-83,-67,4
-68,-303,50,20,0,5,-24,-34,-59,-87
-256,568,-11,-11,-7,38,20,46,-9,-169
-277,1499,-69,-58,-34,27,19,70,61,-25
-175,2276,-74,-57,-55,16,-8,52,52,55
-194,2552,-51,-30,-27,38,4,47,7,-66
-196,2258,-69,-39,-26,21,5,52,47,-53
-192,1660,-135,-60,-35,42,67,73,57,6
-59,904,-175,-65,-73,-22,45,15,-26,61
27,-167,-71,-5,-38,-31,0,-31,-92,26
35,-1318,57,54,5,-25,-28,-74,-140,-23
35,-2365,92,47,2,-53,-26,-88,-132,-37
0,-3185,37,27,9,-20,35,-25,-61,24
13,-3886,-10,31,25,-2,72,39,67,137
112,-4045,59,46,21,-30,39,59,166,173
106,-3909,101,57,33,-16,22,33,70,87
65,-3444,22,43,42,2,16,15,-20,30
30,-2733,11,27,50,1,14,0,-38,-22
67,-1777,-1,0,26,-12,-27,-28,-38,12
143,-718,-24,-37,-21,-50,-78,-39,-18,152
68,369,-180,-58,-9,-21,-44,10,58,221
19,1277,-221,-38,-2,-2,-51,10,73,286
85,1715,-96,-11,-14,-48,-131,-72,-22,274
138,1750,-4,-18,-7,-21,-95,-60,-27,219
121,1515,6,-13,16,22,-24,-18,-15,93
-57,802,69,17,30,31,-9,-16,-66,-135
-239,-96,63,22,42,37,22,11,-86,-262
-171,-803,9,24,36,38,45,26,-108,-218
11,-1398,68,30,19,8,6,-3,-111,-111
43,-1924,107,32,16,-8,-14,-24,-38,-33
17,-2156,52,-5,-4,-24,-17,-7,95,103
79,-1929,-2,-31,-24,-40,-7,2,202,242
66,-1511,-53,-23,2,-18,20,-4,131,143
-43,-813,50,21,48,35,54,-8,3,-69
-95,179,28,11,29,55,86,40,11,-55
-146,1158,-80,-56,-12,44,103,76,36,24
-118,2286,-47,-43,2,15,49,14,-27,-24
-63,3391,24,14,17,12,-5,-68,-141,-91
-18,4142,31,11,-18,-7,-34,-105,-182,-93
89,4361,23,-16,-41,-24,-38,-58,-50,46
94,4175,-11,-35,-25,-10,-1,23,75,117
-38,3538,-51,-30,-16,7,41,110,124,65
-28,2557,-49,-23,-28,-28,19,135,149,91
61,1696,-26,32,19,-15,12,79,104,95
6,790,66,97,106,67,88,28,-1,-17
-16,-6,51,55,89,80,121,20,-42,-19
-96,-649,-289,-109,9,95,214,129,75,89
-63,-636,-426,-117,33,136,200,66,16,95
271,-165,56,46,21,-51,-102,-230,-229,29
321,406,266,65,-58,-205,-243,-294,-220,-12
350,1353,251,44,-59,-189,-198,-213,-159,30
