41,-1850,13,16,0,14,-7,42,49,-28
27,-2562,34,9,2,10,3,36,37,-41
28,-3143,40,3,2,-1,5,60,75,-28
34,-3484,34,-9,15,-10,10,75,71,-22
29,-3423,32,-11,23,-16,11,53,49,-26
12,-3074,18,-17,10,-21,12,17,35,-33
7,-2490,5,-28,5,-5,3,5,39,-39
-7,-1670,5,-36,16,8,-12,11,34,-49
-31,-828,5,-6,28,10,-18,5,-1,-63
-57,124,-7,8,22,28,0,0,-41,-81
-60,1145,-9,-2,13,38,18,13,-5,-69
-53,1981,-23,0,10,34,13,9,26,-65
-42,2276,-26,7,15,28,16,-1,13,-70
-8,2121,-53,7,12,27,9,-18,-28,-55
34,1676,-109,11,3,5,-3,-24,0,-20
80,851,-23,7,-2,-31,-18,5,58,31
96,-87,0,17,10,-41,-44,5,64,56
46,-962,16,15,19,-29,-39,-11,33,37
10,-1695,22,28,24,-29,-37,-18,19,32
27,-2300,-18,18,27,-25,-20,-13,17,40
29,-2627,-35,19,23,-4,16,-27,-5,16
52,-2538,1,5,25,-3,32,-36,-48,-5
78,-2225,29,-16,9,-22,44,-31,-18,11
70,-1646,29,-14,-8,-40,47,-11,39,39
32,-902,26,-1,0,-41,52,-8,40,62
-38,-134,-7,-7,14,-31,40,-13,-3,55
-94,813,-49,-40,-16,-36,1,-20,-57,24
-94,1772,-41,-47,-31,-42,-45,-15,-22,8
-99,2418,0,-11,7,-16,-63,-32,-20,-70
-128,2534,27,22,43,14,-37,-23,-54,-115
-128,2316,37,29,36,-10,-39,-6,18,-125
-96,1767,31,25,22,-20,-42,-8,53,-116
-70,872,25,10,23,-17,-40,-6,28,-104
-68,-13,18,11,32,32,-32,11,17,-75
-48,-763,-12,13,35,88,-7,11,22,-49
-28,-1397,1,4,30,92,33,12,24,-25
1,-1873,23,15,24,50,58,33,41,15
34,-1999,40,36,25,-46,54,48,53,47
50,-1856,36,26,21,-88,7,24,28,46
36,-1540,20,13,-4,-70,-34,-7,7,38
-3,-943,12,0,-10,-46,-47,-9,9,23
-48,-256,-12,-12,-12,10,34,10,9,3
-60,484,-32,-23,-23,38,92,9,5,-36
-47,1324,-26,-17,-18,13,11,-17,7,-45
-36,2040,-28,2,-22,-9,-32,-35,-24,-16
-4,2330,-42,1,-28,-18,-44,-61,-12,14
0,2134,-46,-10,-30,-21,-49,-67,14,17
0,1651,-33,-12,-27,-9,11,-58,31,-2
8,803,-2,2,-8,1,55,-35,47,-15
15,-254,7,25,0,-17,9,4,79,-10
23,-1214,20,28,14,-31,-41,43,79,-5
32,-2065,29,12,21,-51,-60,86,17,6
31,-2793,23,11,11,-62,-56,98,-30,0
21,-3255,27,16,8,-49,-24,76,-33,8
28,-3305,42,-7,12,-44,-44,26,-49,38
24,-3089,-9,-25,1,-20,-55,-60,-70,53
4,-2629,-95,-34,-24,39,-1,-109,-141,30
-19,-1873,-32,-29,-20,101,121,-82,-106,-5
-10,-1071,9,-8,-3,126,151,-34,-27,-18
1,-160,6,13,0,92,102,-13,-40,-17
-7,815,-8,4,-28,45,49,12,-2,-12
-39,1552,-33,-22,-44,10,-13,17,21,-14
-69,1820,-44,-31,-48,-6,-33,12,39,31
-59,1676,-34,-25,-36,-3,-25,23,67,76
1,1260,-17,-20,-25,5,-1,36,83,61
46,460,0,-15,-18,2,29,34,114,38
28,-405,-20,-6,4,13,55,38,125,26
8,-1137,-10,10,19,8,55,50,184,23
12,-1766,28,8,18,-1,25,34,171,6
29,-2210,12,-2,17,-20,12,21,128,19
59,-2288,-12,3,14,-30,3,41,116,46
69,-2046,44,14,25,-22,-17,47,122,55
44,-1611,28,9,11,-16,-57,9,51,37
17,-872,-4,-16,-14,-4,-62,-26,-45,10
4,17,1,-40,-38,25,-25,-43,-63,2
-6,948,-2,-55,-35,55,17,-43,-40,16
22,1993,-6,-46,-35,35,45,-40,-22,28
72,2958,-11,-23,-36,-3,27,-41,-24,47
84,3572,-5,-21,-37,-24,-3,-38,-53,53
72,3630,-8,-18,-46,-8,0,-25,-81,61
10,2984,-100,6,-39,-9,18,16,-32,114
-16,2076,16,22,0,14,9,13,-24,100
0,1229,40,31,8,15,14,14,-11,89
4,539,36,37,14,3,13,16,16,74
-28,-29,68,50,28,-1,18,20,70,23
-100,-440,48,28,25,2,31,46,96,-24
-98,-443,29,28,29,22,40,43,76,-19
-42,-115,68,44,28,20,13,-2,11,43
-26,433,48,41,12,11,5,-27,-42,76
-44,1268,25,37,19,14,-20,-51,-78,26
-64,2171,8,42,23,5,-32,-43,-24,-32
-70,3132,0,14,-4,-16,-31,-7,21,-61
-64,4176,-32,1,-19,-6,-25,15,77,-62
-46,5105,-45,0,-14,5,-33,8,108,-39
-27,5541,1,-7,-9,-5,-44,-13,67,-15
-14,5474,-2,3,-12,-20,-53,-17,-12,-8
-20,5077,-75,2,-28,-20,-49,-5,-67,-10
-53,4275,-53,16,6,15,-10,-10,-113,-61
-47,3290,-33,28,41,24,11,-17,-102,-59
6,2381,41,38,51,11,-12,-5,-33,-1
27,1515,50,35,40,4,-9,-4,-38,12
34,705,57,24,27,-3,18,3,-33,1
44,116,77,26,36,-11,9,14,-15,0
44,-90,78,28,39,-13,-9,-7,0,-5
37,-87,12,0,27,-13,-1,0,27,7
19,141,-14,-12,11,0,-4,14,2,16
23,591,35,0,28,-7,-11,11,49,10
14,1060,47,1,22,-21,-16,-13,43,5
-23,1633,6,-18,-8,-12,-16,-43,-40,-22
-75,2258,-39,-39,-20,18,9,-35,-64,-64
-102,2662,-54,-47,-24,33,18,-5,-69,-70
-71,2570,-42,-32,-20,20,-13,-9,-54,-48
-15,2170,16,11,20,26,-8,-41,-65,-46
16,1497,72,48,65,58,20,-78,-96,-58
33,442,76,44,47,42,8,-70,-81,-60
90,-582,60,16,4,-23,-11,-4,9,23
110,-1442,27,-18,-37,-77,-31,39,78,98
78,-2185,10,-40,-75,-78,-23,48,44,83
57,-2701,12,-34,-49,-44,7,45,67,40
52,-2829,39,-4,-1,-20,20,33,69,14
26,-2410,-2,17,22,10,0,1,58,41
44,-1725,-36,6,17,0,-42,30,60,56
92,-870,-15,-10,19,-27,-51,34,64,72
117,56,31,1,13,-31,-66,16,58,64
93,1067,11,-7,2,-29,-59,8,22,56
35,1968,-32,-11,-10,-27,-55,3,-50,37
6,2545,-29,-4,-9,-39,-70,3,-106,33
33,2656,-24,15,-23,-73,-112,-10,-137,41
73,2529,-32,5,-47,-111,-143,-47,-169,37
77,2134,20,-5,-68,-129,-128,-85,-174,49
37,1462,25,-20,-88,-111,-88,-122,-203,13
-27,866,-38,-49,-99,-50,-60,-128,-235,-50
-84,464,-53,-20,-30,85,-27,-109,-216,-99
-101,257,26,55,97,245,78,-64,-194,-110
-49,289,35,82,101,223,154,2,-67,-23
-15,621,31,57,18,72,172,84,143,56
-30,1104,10,37,-13,-7,97,139,345,35
-50,1986,-32,35,-15,27,55,133,301,-9
-29,3247,15,48,19,62,74,111,215,-5
-31,4423,19,29,16,56,90,82,149,-10
-24,5553,-7,-10,-15,39,59,68,111,-3
-19,6570,-15,-22,-44,32,26,44,125,5
-10,7075,-13,-13,-42,39,7,18,98,-8
4,7026,-5,-8,-35,30,1,1,103,0
23,6740,0,-10,-34,30,0,5,96,24
48,6359,13,1,-9,32,-1,2,86,17
36,5899,12,4,-7,30,7,3,74,-5
28,5344,-1,6,-15,33,10,-4,17,-4
38,4770,-5,-2,-27,24,15,-3,23,23
48,4155,-16,-20,-40,12,14,-2,23,69
39,3561,-79,-25,-30,3,23,2,38,101
21,3112,-63,-13,-26,10,41,-1,17,74
20,2871,-12,-8,-24,11,25,0,-35,34
8,2751,15,12,-2,14,16,-27,-48,-31
-37,2790,46,27,22,21,-7,-47,-52,-86
-62,2890,51,24,17,18,-32,-41,-23,-91
-50,2968,37,20,10,11,-41,-27,-36,-72
-53,3109,25,14,7,14,-44,-21,-40,-70
-66,3154,19,-6,0,9,-67,-17,-36,-72
-60,3011,-4,-28,-20,-4,-78,-21,-54,-74
-60,2731,-27,-36,-29,-5,-63,-16,-61,-75
-40,2286,0,-27,-17,7,-64,-26,-42,-59
-6,1587,18,-10,-7,14,-49,-41,-29,-56
13,545,11,-3,-17,18,-12,-36,-20,-49
19,-602,16,-2,-11,18,-6,-58,-62,-15
39,-1717,18,-5,-26,6,-20,-52,-107,13
59,-2770,28,-6,-26,-8,-31,-47,-86,40
77,-3682,44,1,-14,-19,-26,-55,-59,49
56,-4247,15,-12,-31,-16,35,-42,-75,41
27,-4450,-17,-23,-40,0,95,-7,-103,12
2,-4388,-58,-17,-14,17,99,63,-5,6
-11,-4022,-41,-24,-13,9,82,109,44,19
-25,-3529,-30,-36,-35,-2,57,81,0,18
-36,-2932,-37,-29,-45,15,35,30,-7,-12
-37,-2138,-35,-36,-17,25,17,-8,28,-19
-28,-1419,-13,-19,5,15,-14,-30,20,-19
-22,-1088,-1,12,9,5,-43,-35,4,-22
-30,-1209,-4,3,3,0,-30,-16,-16,-36
-18,-1559,17,-9,11,6,-27,-20,-14,-42
15,-2238,29,-6,31,11,-16,-21,11,-28
30,-3148,-20,-6,11,0,-25,-20,-5,-21
40,-3949,-2,-2,3,-5,-23,-18,-17,-4
63,-4602,22,3,-1,-4,-17,-12,-1,19
94,-5088,15,-12,-1,-9,-1,3,17,42
100,-5305,8,-31,-6,-13,7,1,-4,47
96,-5165,4,-20,-6,-11,10,3,-21,36
83,-4779,-2,-22,3,-15,0,4,-68,23
34,-4148,0,-17,4,-10,-9,9,-61,-16
-1,-3270,-6,-15,5,-10,-23,-1,-100,-37
-11,-2352,-37,-11,0,-3,-38,-6,-145,-45
-4,-1316,-17,-8,-13,-3,-52,-13,-140,-50
-2,-228,5,-7,-7,-3,-54,-1,-76,-23
-6,578,-1,-15,-22,-19,-42,9,17,13
-21,830,-9,-29,-42,-19,-38,36,55,23
-14,685,-5,-17,-31,-7,-22,51,58,22
-12,229,-12,-23,-29,-3,-21,28,3,38
19,-604,-6,-21,-35,-4,-13,25,-20,60
32,-1532,19,9,-21,0,31,32,-24,64
39,-2379,40,16,15,8,71,40,14,56
47,-3110,29,6,18,-3,56,32,18,65
23,-3739,8,0,-7,-30,35,14,10,97
34,-4092,-6,-13,-18,-30,22,26,25,114
-14,-2941,-171,-14,14,8,52,-10,-58,-10
-30,-2110,-125,-1,14,-6,20,-45,-135,-3
-26,-1340,-18,-5,15,5,7,-74,-195,24
-8,-905,-11,-11,1,9,-1,-66,-138,66
24,-1004,-31,-38,-24,-21,-43,-16,-7,113
7,-1434,-14,-32,-27,-36,-50,-6,59,85
-6,-2234,-8,-19,-13,-34,-18,-2,60,15
-19,-3324,-3,-18,1,-17,27,37,83,-49
-14,-4340,-10,-27,-12,-9,47,62,134,-81
-9,-5195,10,-29,-11,-11,70,79,118,-66
14,-5912,22,-6,-11,-15,70,83,71,-42
57,-6445,3,-17,-34,-33,43,49,15,10
15,-6560,-1,-24,-34,-22,28,33,1,45
-51,-6344,2,-18,-9,1,41,46,14,42
-34,-5841,0,1,-5,-3,31,38,27,32
12,-5019,-41,2,-12,-20,-5,27,6,6
46,-4121,-107,0,4,-34,-43,6,15,-5
48,-3154,-37,-4,-8,-52,-91,-20,-8,-7
51,-2071,-14,-34,-20,-90,-129,-41,-31,18
8,-1133,-32,-40,-15,-110,-156,-49,5,24
-70,-682,-85,-19,5,-76,-131,-30,34,15
-81,-713,-117,26,56,-21,-71,-3,47,1
-17,-967,-52,71,75,-24,-72,10,30,-5
-13,-1591,46,76,86,-15,-80,13,27,-65
2,-2327,74,65,83,11,-73,28,47,-97
-22,-2896,51,14,38,55,19,24,50,-77
-99,-3385,19,-6,18,110,151,37,24,-61
-119,-3754,7,3,14,122,175,22,-55,-57
-96,-3782,-45,19,18,107,135,10,-61,-66
-74,-3357,-63,35,30,108,112,-3,-98,-80
-45,-2644,-21,38,38,123,152,-14,-115,-77
12,-1677,-61,44,28,72,166,4,-103,-31
34,-545,13,46,10,14,103,15,-128,-19
6,571,25,0,-19,-2,34,-9,-123,-12
-38,1793,-9,-55,-40,-13,13,-23,-96,3
-79,3041,-5,-57,-44,-12,48,-14,-75,13
-74,3996,-20,-54,-50,-14,86,-9,-3,55
-34,4367,-39,-54,-32,-26,57,6,154,98
12,4342,0,-41,-11,-17,29,29,280,105
52,3966,3,-8,-7,-12,30,31,223,47
103,3168,-53,17,0,1,23,12,95,-24
93,2273,-15,30,18,13,16,-9,22,-61
81,1450,40,39,22,4,16,-3,23,-21
162,765,0,20,4,-22,-13,-23,17,-5
229,178,62,-4,-8,-32,-60,-40,3,3
147,-190,49,-6,-21,-29,-62,-50,5,3
75,-224,30,-10,-41,-47,-70,-60,6,15
40,-29,29,-25,-39,-87,-140,-116,-6,7
21,465,14,-33,-27,-104,-172,-140,-24,38
-11,1128,25,-19,-9,-91,-171,-96,-51,82
-37,1874,79,19,24,-58,-155,-18,-7,101
-50,2641,86,32,42,-24,-46,89,53,143
-46,3383,63,19,24,-3,49,127,80,129
-98,3645,59,28,41,19,110,96,51,-11
-121,3441,72,58,69,41,130,57,28,-157
-40,2966,84,50,69,26,12,-12,-5,-204
-24,2193,72,27,37,-10,-100,-79,-85,-201
-41,1128,23,-15,-26,-13,-67,-92,-109,-174
17,86,-22,-65,-69,-6,49,-44,-82,-138
97,-816,-12,-70,-80,-32,87,-16,-58,-100
77,-1632,-28,-55,-70,-60,49,-11,15,-59
66,-2230,0,-42,-52,-66,27,3,98,67
82,-2392,7,-26,-25,-71,4,6,170,264
69,-2264,-49,-40,-44,-68,-20,-8,103,419
125,-1898,-79,-106,-92,-57,-19,-41,-13,429
226,-1269,-108,-101,-90,-31,2,-51,-73,256
259,-563,-26,-51,-58,-23,-2,-21,-18,117
145,252,17,-6,-14,11,-29,-13,24,49
15,1148,46,48,41,58,-28,0,28,54
-74,1923,50,79,78,65,-21,40,124,107
-184,2358,60,83,96,77,-7,106,208,61
-316,2402,56,122,145,153,59,164,198,-188
-346,2264,-8,117,141,159,76,139,115,-437
-274,1879,-9,92,102,129,69,54,5,-508
-202,1341,29,48,58,85,125,6,-112,-528
-136,1021,23,34,13,53,177,20,-78,-440
-104,714,35,34,5,37,147,25,-29,-328
-77,504,43,31,25,24,115,23,-12,-246
-60,693,40,39,37,10,68,25,8,-169
-56,1314,31,35,24,-7,33,25,11,-102
-56,2121,-1,-3,-15,-43,-19,-14,-12,23
-63,2977,-10,-14,-15,-45,-43,-45,-29,67
-87,4086,-2,1,0,-20,-19,-40,-41,0
-74,5187,7,-1,7,10,-4,-27,-39,-44
-18,6434,-6,-21,-3,7,22,1,-35,-5
33,7331,-14,-29,-21,-21,6,-5,-27,53
41,7895,-19,-23,-31,-34,-57,-52,-36,53
113,7963,-49,-45,-66,-86,-133,-89,-48,151
365,7896,-153,-119,-158,-198,-230,-158,-52,388
477,7796,-228,-223,-258,-306,-309,-211,-58,524
436,7280,-241,-301,-329,-370,-362,-215,8,511
482,6581,-249,-321,-345,-386,-364,-198,52,349
479,5805,-171,-236,-261,-311,-288,-138,99,244
269,4954,-91,-128,-113,-199,-196,-40,178,434
-82,4037,51,60,105,-14,-30,99,238,601
-323,3306,206,246,298,181,138,246,245,379
-240,2943,256,308,343,212,135,248,86,-207
-246,2825,254,313,341,179,42,154,-92,-791
-362,3189,235,283,319,140,-22,62,-199,-952
-526,3714,162,190,255,72,-66,-9,-235,-891
-484,3997,122,152,174,49,-47,-57,-219,-646
-233,4285,80,115,107,82,14,-70,-180,-431
-115,4281,-23,31,46,124,38,-48,-104,-314
-142,4100,-44,20,15,142,50,-52,-77,-258
-227,3874,-64,50,33,204,211,-11,-39,-234
-178,3648,-10,30,48,247,337,64,-8,-166
-50,3411,-11,11,29,210,276,71,0,-70
60,3176,-11,-6,8,131,241,59,67,0
78,2960,40,3,8,28,248,64,78,51
69,2752,33,4,6,-47,160,40,37,153
66,2494,12,-17,4,-53,62,3,20,198
63,2296,4,-31,-6,-68,14,-30,-6,139
116,2129,13,-40,-24,-79,-4,-28,0,113
204,2032,14,-32,-5,-57,6,7,14,146
274,1954,26,-23,20,-43,12,46,107,200
148,1891,-13,-26,13,-36,2,42,164,213
14,1823,-52,-42,-8,-38,1,-6,117,184
61,1768,-49,-22,-9,-20,-4,-14,39,186
-7,1686,-8,17,46,18,-40,-6,7,137
-137,1579,42,36,89,3,-118,-54,-7,-43
-151,1456,72,54,97,-10,-180,-67,15,-223
-190,1282,51,38,78,-7,-189,-18,35,-318
-145,912,6,-19,11,-56,-242,-30,19,-192
3,174,12,-21,-10,-90,-285,-61,12,21
65,-916,-1,-32,-11,-51,-166,-54,-27,48
51,-1983,-26,-54,-23,26,75,-12,-81,-28
16,-2385,1,-41,-10,73,203,56,-68,-64
-33,-2948,20,-11,24,79,255,117,-7,-127
-78,-3825,13,4,42,30,144,127,61,-141
-107,-4199,-54,1,26,-14,27,76,85,-125
-106,-4414,-10,-14,27,-22,-15,15,-4,-137
-41,-4256,10,-33,0,-37,-46,-17,-1,-71
14,-4023,-33,-52,-35,-34,-60,-35,-79,-16
36,-3679,-27,-52,-36,-21,-54,-68,-147,-26
58,-3195,10,-34,-17,-6,50,-89,-145,-18
43,-2662,7,-29,-14,37,153,-52,-119,-12
-11,-2554,-3,-30,-15,60,149,-10,-66,-48
-45,-2939,13,-21,-22,63,120,-3,-2,-41
-76,-3682,-20,-60,-72,39,144,22,82,-12
-73,-4681,-53,-101,-110,-25,80,33,162,0
50,-5859,-36,-108,-116,-59,24,16,178,-7
218,-7120,-16,-95,-117,-81,7,19,192,4
371,-8360,-20,-99,-124,-109,-24,17,222,129
453,-9446,-21,-104,-125,-127,-48,2,221,323
393,-10277,-12,-87,-113,-114,-64,6,225,590
240,-10708,0,-52,-81,-101,-80,36,294,933
174,-10840,4,-39,-62,-94,-44,71,316,1097
214,-10769,41,-5,-2,-70,-45,75,179,798
104,-10520,75,55,71,-13,-73,29,-36,-68
-139,-9863,120,111,126,37,-72,-10,-174,-901
-254,-9040,154,142,147,25,-64,-21,-171,-995
-181,-7769,138,112,123,32,-33,-9,-114,-664
-116,-6704,67,54,59,42,-43,-19,-106,-413
-143,-6118,16,18,27,50,-66,-27,-75,-295
-224,-5958,-29,-23,-10,129,77,-14,-7,-242
-210,-5992,-65,-46,-28,215,297,-13,-15,-205
-58,-6211,-30,-25,-18,184,261,-46,-57,-101
23,-6652,-30,-28,-22,78,155,-71,-92,-27
79,-6764,-47,-12,22,-2,72,-98,-135,-21
80,-6639,-76,3,76,-38,-13,-132,-135,-35
19,-6322,-105,-19,72,-41,-63,-168,-159,-41
-43,-5599,-122,-82,24,-69,-60,-158,-117,-24
-111,-4295,-129,-154,-77,-90,-10,-78,-41,-61
-119,-2596,-117,-165,-189,-100,1,-11,-69,-65
12,-1054,-62,-80,-209,-128,-56,12,-53,105
158,699,29,-8,-253,-184,-168,-39,-13,323
330,2397,-5,-76,-312,-231,-240,-89,96,608
528,4068,-69,-133,-286,-217,-250,-103,204,906
537,5716,-56,-71,-188,-152,-215,-97,160,1016
571,6972,-78,-1,-80,-59,-124,-44,99,860
461,7676,-34,35,15,22,-1,50,162,674
-21,7849,101,157,174,184,182,161,190,294
-409,7711,142,256,282,297,259,144,-74,-297
-266,7641,120,235,232,227,161,0,-329,-581
100,7725,94,152,128,87,40,-56,-316,-559
344,7996,76,112,85,34,26,40,-98,-269
304,8440,106,131,97,29,19,57,16,-76
47,8673,170,192,157,54,25,61,54,-117
-52,8843,135,186,163,69,41,71,0,-183
-307,9110,46,141,148,86,43,77,-40,-191
-631,9108,16,119,138,84,-10,36,-38,-148
-714,8675,-40,102,104,61,-86,-40,-44,-197
-548,8169,-109,75,88,103,-45,-48,-101,-467
-422,7684,-91,50,71,103,-4,-40,-62,-532
-373,7233,-61,7,13,27,-37,-40,-16,-235
-200,6805,-59,-17,-36,-44,-107,-39,14,27
-95,6397,-71,-58,-74,-85,-125,-89,1,103
16,6024,-110,-112,-120,-119,-81,-163,-16,192
245,5666,-70,-105,-139,-151,-110,-184,22,439
411,5323,-39,-110,-154,-192,-166,-167,82,673
341,5012,-116,-190,-222,-262,-219,-192,61,537
246,4710,-222,-287,-300,-339,-271,-217,58,478
388,4417,-270,-315,-321,-355,-285,-207,61,701
460,4146,-270,-288,-284,-321,-258,-157,59,955
248,3883,-228,-225,-192,-225,-170,-59,60,998
54,3643,9,4,92,20,51,162,138,542
-93,3421,261,280,361,241,227,292,161,-154
-97,3219,341,415,407,236,171,241,136,-604
-58,3021,321,391,358,163,2,137,29,-820
-148,2836,258,324,299,118,-114,83,-37,-749
-478,2662,129,197,180,58,-186,27,-59,-702
-572,2508,52,136,142,97,-158,9,-79,-773
-412,2349,-18,132,148,159,-82,24,-77,-768
-385,2159,8,109,116,159,21,39,-101,-574
-299,1909,57,90,106,149,191,75,-110,-385
-193,1486,44,47,85,197,434,158,-54,-240
-214,556,0,14,49,239,547,206,-25,-171
-197,-648,-10,-17,1,176,417,167,-3,-83
-75,-1819,9,-21,-37,57,224,100,8,9
34,-2888,45,10,-12,-7,122,78,47,19
81,-3640,46,-7,-6,-23,86,57,8,-7
107,-4111,-8,-46,-46,-44,52,20,-33,4
21,-4284,-78,-79,-71,-78,8,-23,-15,-2
-60,-4566,-139,-163,-152,-130,-33,-46,-2,23
-1,-4633,-292,-314,-284,-218,-28,-57,66,186
271,-4295,-294,-361,-336,-275,-100,-49,199,675
521,-4028,-76,-239,-285,-298,-211,-92,273,1312
651,-3673,-45,-166,-218,-274,-237,-64,405,1892
839,-3238,-131,-162,-171,-208,-210,4,390,1933
1074,-3502,25,-80,-92,-119,-165,26,175,1142
770,-4471,93,18,0,-41,-161,34,14,184
-49,-5737,88,52,72,-23,-188,7,-47,-361
-569,-7369,121,78,108,-22,-226,-30,-144,-812
-530,-9186,108,71,111,-23,-300,-96,-286,-1145
-331,-11001,187,120,157,68,-211,-68,-362,-1062
-100,-12620,198,130,194,148,-11,32,-264,-732
-92,-13073,122,106,207,117,15,31,-172,-506
-230,-12487,57,104,262,145,149,-17,-188,-512
-263,-11728,-8,74,266,262,357,-5,-221,-613
-336,-11015,-41,38,270,289,287,21,-157,-659
-283,-10353,-33,-24,217,211,196,28,-48,-574
-234,-9723,-10,-90,82,132,149,28,6,-440
-275,-9089,20,-96,-39,121,202,49,-17,-298
-217,-8073,80,6,-90,107,267,87,5,-196
-140,-6446,105,69,-184,64,248,108,56,-144
-76,-4897,120,1,-190,46,205,88,60,-99
-38,-4254,90,-32,-116,55,137,39,-11,-84
78,-3146,73,-20,-69,53,101,16,-10,53
184,-912,41,-43,-63,3,40,5,66,188
202,-846,-25,-96,-125,-86,-44,-34,11,176
450,-970,-145,-172,-208,-194,-137,-91,-29,323
738,-1040,-282,-321,-370,-377,-319,-213,-58,598
879,-1379,-326,-467,-534,-544,-503,-313,-58,904
967,-1528,-351,-509,-552,-577,-539,-303,28,1033
883,-2324,-259,-399,-402,-422,-381,-147,212,920
285,-3085,-90,-159,-114,-101,-79,72,290,606
-638,-3725,166,160,228,275,271,281,256,325
-1368,-4327,372,413,493,511,520,461,317,164
-1095,-3498,377,437,481,452,479,457,287,-109
-267,-2321,289,319,309,273,254,225,35,-598
204,-1210,173,201,177,227,187,23,-133,-681
25,-215,37,90,95,243,220,-6,-127,-481
-621,1549,-104,57,74,221,129,25,-130,-409
-1026,3114,-87,86,109,211,106,79,-80,-458
-823,3357,-27,58,104,175,88,52,-121,-591
-262,3405,-8,29,51,96,1,-54,-196,-534
174,3017,42,21,27,32,-80,-148,-239,-374
347,2464,64,5,-25,-33,-149,-194,-206,-128
544,2302,21,-94,-152,-162,-195,-235,-149,193
572,2290,-109,-228,-309,-299,-260,-284,-90,588
486,2475,-215,-308,-401,-392,-356,-308,-30,973
502,2891,-225,-312,-376,-364,-316,-288,-82,990
811,3360,-127,-223,-282,-299,-237,-294,-130,843
1066,4209,-39,-70,-123,-148,-120,-211,-77,809
711,5182,102,161,136,130,92,-25,-46,510
223,5894,205,251,253,247,179,128,18,388
97,6565,61,92,81,81,50,92,122,585
-371,6909,-76,2,19,25,-10,75,238,323
-983,7192,-147,53,102,102,-13,50,163,-507
-909,7137,-24,156,167,136,-34,77,68,-1032
-410,6386,7,96,81,-3,-135,85,160,-843
52,5263,48,71,37,-84,-223,46,142,-458
88,3852,110,117,84,-34,-248,27,76,-427
121,2341,162,150,117,0,-255,28,117,-390
-411,552,189,197,171,70,-193,25,103,-542
-1168,-1281,171,234,244,254,58,94,37,-757
-854,-2519,130,178,201,289,271,125,45,-500
-17,-3358,45,50,83,113,217,78,103,29
281,-3561,-13,-50,-7,-59,160,46,124,357
188,-2775,-112,-135,-98,-131,143,38,110,566
-4,-2810,-231,-218,-168,-116,165,49,33,432
-17,-3018,-126,-134,-81,-23,202,41,-37,-92
147,-2896,45,40,9,32,116,-16,-139,-344
171,-2604,-58,-38,-107,-90,-72,-120,-156,-114
154,-2013,-169,-165,-267,-220,-224,-208,-168,82
711,-679,-143,-248,-373,-316,-316,-248,-95,400
1400,-905,-154,-287,-424,-406,-405,-264,34,910
1737,-2476,-165,-225,-362,-381,-340,-134,318,1336
1818,-3967,-114,-133,-241,-228,-146,90,600,1522
736,-6259,-149,-111,-155,-83,59,201,518,1172
-956,-7987,-95,35,118,241,364,346,281,706
-2010,-7936,100,317,498,593,644,510,119,133
-1847,-7479,184,370,535,527,528,357,-204,-758
-1041,-7021,125,233,360,227,179,43,-539,-1635
-486,-6597,160,260,410,142,47,-57,-570,-1794
-251,-6216,165,280,434,103,-9,15,-318,-1013
-147,-5846,40,148,299,-13,-170,-27,-231,-541
-98,-5493,-75,13,142,-112,-335,-139,-297,-499
-82,-5150,-118,-126,-25,-152,-345,-113,-197,-318
21,-4845,-102,-167,-127,-152,-251,-42,-11,61
144,-4552,50,-40,-136,-168,-279,-30,83,388
161,-4276,124,6,-150,-182,-309,-38,114,370
26,-4017,20,-82,-138,-101,-166,-37,7,-18
-43,-3765,-76,-130,-109,54,75,-40,-159,-556
-13,-3537,-107,-83,-37,206,174,-35,-224,-892
-34,-3316,6,-50,4,288,280,-32,-231,-933
-291,-3127,17,-79,-43,191,391,-18,-204,-664
-467,-2945,-76,-173,-166,-63,186,-75,-118,-277
-264,-2772,-67,-144,-143,-111,76,-45,-28,-49
346,-2603,24,-57,-67,-28,121,13,29,169
623,-2451,25,-26,-14,74,287,63,64,244
396,-2308,-34,-26,-15,96,283,77,79,175
225,-2169,-48,-104,-80,1,114,27,184,404
281,-2030,-164,-270,-271,-229,-131,-110,199,944
239,-1906,-227,-325,-330,-304,-235,-136,221,1264
228,-1785,-235,-288,-267,-230,-189,-84,191,1129
127,-1665,-142,-156,-112,-72,-72,-34,33,492
-112,-1559,27,15,57,75,54,-29,-220,-588
-401,-1459,263,261,281,309,275,56,-364,-1297
-567,-1354,334,340,339,365,333,122,-249,-1121
-400,-1244,182,183,208,226,168,123,-79,-777
-338,-1117,71,70,85,98,42,100,90,-323
-208,-745,27,37,27,-6,-64,32,202,121
-121,-381,34,64,59,-27,-92,14,149,293
136,-785,15,57,51,-34,-133,7,64,251
396,-847,33,93,88,-41,-197,-20,-42,14
205,-757,40,116,100,-41,-173,-20,-78,-251
-103,-688,7,39,23,-67,-90,32,31,-256
-162,-327,-17,2,-18,-49,-47,42,80,-10
-74,611,37,21,-12,-47,-53,-10,1,35
112,1953,26,-15,-69,-100,-107,-90,-52,68
161,3086,-47,-48,-96,-59,-28,-128,-124,-21
141,4042,-12,-59,-99,-46,-13,-113,-122,-203
329,5092,20,-54,-102,-81,-89,-71,-9,-202
46,6176,-11,-65,-115,-64,-101,-68,70,50
-367,7277,-82,-106,-136,-1,-20,-73,45,294
-24,7616,-110,-81,-136,42,30,-37,5,510
340,7320,-34,-44,-114,-23,22,6,71,613
407,6801,52,14,-40,-55,17,22,20,153
123,5827,135,138,129,103,155,106,-9,-399
-662,4887,59,113,159,176,180,122,-52,-545
-733,4271,-39,59,111,166,151,80,-137,-504
-210,3857,-114,69,93,140,157,73,-138,-278
-106,3540,-90,106,123,120,190,125,-76,-310
-191,3496,24,100,97,60,162,142,-27,-380
-376,3848,39,30,35,-32,19,39,-39,-332
-200,4501,-57,-62,-61,-138,-152,-46,-48,-227
149,5312,-107,-109,-121,-207,-246,-110,-37,-101
319,6094,-65,-106,-120,-191,-232,-131,-83,-17
425,6800,0,-53,-88,-121,-86,-76,-69,81
124,7427,70,53,19,5,92,53,56,115
-392,7948,112,120,92,115,168,162,187,92
-356,8357,75,92,81,125,174,180,214,236
-19,8360,27,64,45,63,82,140,191,405
58,7926,-83,-47,-81,-71,-39,26,119,487
216,7187,-191,-206,-292,-319,-307,-239,-62,563
559,6131,-185,-235,-390,-469,-547,-446,-154,571
900,4936,-124,-267,-419,-499,-616,-482,-177,408
1084,3495,-98,-266,-392,-497,-609,-431,-149,328
946,1833,-11,-111,-206,-290,-348,-211,-54,368
1220,343,162,111,55,-3,-23,-6,-34,193
858,-778,277,267,283,235,239,172,35,-223
-1055,-1901,302,374,422,437,449,398,259,-542
-2532,-2491,120,290,375,468,468,457,300,-729
-2114,-2035,-14,183,299,427,410,365,152,-699
-851,-888,-61,82,179,307,262,170,-14,-443
-153,-239,-136,-66,-10,139,82,-44,-87,40
178,536,-138,-109,-80,79,107,-36,36,244
379,1973,17,37,-14,65,199,53,105,33
559,2769,163,188,80,54,143,93,105,-168
717,2612,194,210,105,74,54,110,122,-253
529,2518,130,116,54,53,8,75,164,-98
-12,1980,-9,-29,-96,-63,-62,-2,197,267
-107,1201,-78,-101,-181,-122,-135,-66,130,532
-222,551,-173,-88,-131,-79,-103,-45,56,401
-546,-51,-114,-40,-31,-35,-30,-54,-141,-173
-438,-371,6,5,29,-12,7,-71,-273,-495
-210,-400,42,26,26,3,21,-90,-297,-566
-66,-448,52,28,14,19,37,-87,-292,-587
-95,-428,18,-7,-3,58,134,-70,-188,-344
40,-181,-42,-79,-86,0,78,-53,0,68
321,474,-133,-150,-176,-135,-75,-39,130,386
350,1158,-129,-152,-190,-192,-180,-78,49,355
98,1681,-36,-84,-117,-161,-166,-91,-86,45
9,2411,-40,-78,-90,-148,-158,-115,-129,-179
56,2664,-84,-60,-24,-132,-149,-102,-51,-342
-160,2459,-71,5,109,-30,-55,-18,55,-317
-125,2109,-167,-70,64,-41,-47,13,152,38
65,1786,-201,-144,-36,-147,-151,-36,150,320
105,953,-149,-161,-53,-153,-165,-56,86,312
259,-239,-95,-176,-91,-99,-104,3,117,180
168,-1438,26,-50,-18,86,114,108,147,145
-126,-2513,114,88,23,183,225,75,46,163
-343,-3237,109,72,-71,48,109,-54,-61,319
-406,-3529,14,-43,-142,-100,-10,-134,-108,292
-453,-3641,-131,-189,-225,-239,-142,-224,-169,124
-430,-3431,-191,-266,-283,-285,-197,-280,-259,-390
120,-2857,-74,-179,-221,-244,-195,-269,-338,-750
776,-2540,-20,-119,-169,-182,-148,-162,-169,-257
1002,-2403,-82,-69,-76,2,5,54,129,340
485,-2026,50,91,130,273,267,304,311,316
-317,-1459,152,176,205,270,248,261,192,-33
-498,-806,141,137,140,96,70,81,-31,-420
-337,-223,62,67,61,-25,-62,-23,-93,-612
-389,49,59,70,66,-22,-98,-22,-72,-589
-378,130,140,157,164,75,-40,53,-2,-503
-254,380,95,139,158,88,-41,88,57,-369
83,-212,-28,4,19,-51,-184,66,83,-14
141,-725,-37,-52,-71,-157,-318,-23,23,330
113,-699,-58,-91,-118,-170,-316,-99,-32,497
151,-851,-86,-122,-136,-143,-134,-45,40,481
323,-840,-43,-100,-118,-99,10,12,113,379
530,264,-13,-64,-84,-74,-18,-5,84,284
579,1257,-20,-50,-53,-69,-42,-24,82,394
474,2068,-60,-78,-72,-66,-73,-69,24,466
173,3066,-72,-106,-104,-93,-27,-101,-95,129
-73,3979,40,27,47,17,93,44,51,-132
-626,4622,55,141,206,224,343,213,200,-219
-725,5401,-122,-8,68,164,302,76,48,-302
143,5911,-157,-97,-54,12,79,-61,-61,-64
474,5810,-84,-7,25,64,114,59,71,179
29,5545,20,172,203,228,274,208,101,169
-231,5400,150,226,244,265,278,231,22,329
238,4698,19,55,74,134,198,203,63,561
250,3618,-46,-15,7,46,173,144,100,306
-20,2550,7,-8,-27,-76,-7,-36,12,-279
-241,1373,-6,-57,-74,-140,-125,-106,19,-559
-617,103,47,-16,-15,-84,-95,-75,62,-573
-709,-783,40,-35,-21,-86,-112,-112,-18,-500
-344,-1335,79,17,56,-35,-75,-146,-116,-275
315,-1601,80,25,65,-48,-110,-164,-102,190
1148,-1446,30,-35,-14,-123,-210,-140,134,1242
981,-1572,73,53,94,30,-46,36,296,1763
395,-1152,76,141,211,225,293,154,188,1322
136,-117,101,197,276,253,312,167,113,473
-908,-487,-92,-11,44,-133,-361,-247,-401,-1932
-389,-1352,32,20,56,-144,-328,-265,-372,-1456
515,-2414,264,174,190,-77,-249,-113,-130,-500
857,-3994,372,273,295,54,-161,45,39,-238
593,-5428,209,155,203,94,-125,124,118,-197
-11,-6983,29,16,56,88,-29,128,139,-93
-1066,-8540,-93,-56,-60,33,100,78,42,-126
-1046,-9802,-85,-85,-130,-18,83,23,8,54
-264,-10344,-99,-108,-142,28,37,-33,53,350
127,-9937,-110,-158,-170,125,132,-103,-40,274
461,-9357,-89,-166,-154,170,288,-84,-59,-16
190,-8795,-34,-66,-33,222,457,86,64,73
-360,-8252,53,40,88,207,400,152,76,-62
-260,-7753,75,74,127,181,313,158,88,-259
53,-7244,-6,0,53,129,285,149,222,452
350,-6841,-88,-92,-57,12,169,146,305,1444
133,-6451,-176,-168,-123,-68,30,62,245,1610
-309,-6079,-163,-137,-74,-18,-2,-18,97,841
-660,-5731,-29,-13,29,89,47,-11,-9,-275
-449,-5380,64,2,9,72,32,-52,-172,-856
559,-5057,120,-24,-50,-15,-37,-111,-246,-663
1038,-4759,133,11,36,-58,-12,-77,-124,-367
392,-4481,39,-2,98,-106,-49,-90,-122,-546
-332,-4230,-88,-62,60,-138,-126,-211,-314,-900
-25,-3986,-231,-178,-55,-196,-181,-240,-348,-701
620,-3749,-328,-242,-168,-216,-168,-214,-235,-290
404,-3521,-111,-82,-112,-53,44,-17,-19,-11
-259,-3313,152,175,79,166,255,243,192,15
-147,-3105,364,347,169,287,325,366,277,22
-225,-2904,418,367,173,264,245,338,271,-74
-81,-2736,180,173,92,123,67,157,85,-168
439,-2584,-37,13,-17,3,-66,49,38,11
147,-2428,-67,-7,-16,13,-25,102,153,-15
-528,-2271,166,185,163,179,96,144,49,-473
-888,-2133,218,219,202,223,93,94,-82,-693
-720,-2006,70,88,81,139,-12,9,-96,-329
-215,-1887,-80,-38,-28,61,-110,-102,-146,101
316,-1774,-105,-102,-102,-35,-182,-145,-89,507
623,-1670,-28,-79,-133,-150,-201,-129,0,723
521,-1580,3,4,-75,-177,-131,-46,92,740
495,-1487,118,66,8,-114,-44,23,237,535
411,-1391,199,79,44,-59,-41,30,286,234
-621,-1286,80,76,79,13,7,41,76,-289
-637,-1195,-39,57,67,57,90,9,-117,-419
354,-1099,-92,-24,-36,-16,95,-26,-63,238
295,-729,-265,-173,-192,-168,-85,-17,175,1085
-61,519,-383,-216,-241,-224,-205,-31,248,1325
103,1557,-284,-134,-133,-142,-173,-44,117,819
-107,2621,-97,23,41,26,-26,44,113,682
-332,3339,18,140,158,154,169,122,83,-83
-678,3219,158,261,298,277,352,124,-154,-1702
-473,2912,184,238,252,213,238,6,-301,-1533
155,2301,97,87,73,21,49,-96,-221,-200
424,1935,42,17,-30,-76,-68,-67,-48,579
98,1583,37,35,-44,-98,-99,-7,55,324
-141,148,94,85,-3,-79,-72,0,32,-398
12,-734,83,60,-48,-120,-101,-4,77,-438
-100,-1471,-3,-39,-128,-195,-137,6,170,-270
-327,845,-107,-102,-152,-211,-147,39,280,39
-303,6300,-217,-178,-161,-203,-164,76,474,977
-311,8331,-237,-220,-136,-164,-178,38,389,1394
306,9911,-71,-143,-103,-194,-300,-178,-23,1049
1072,9733,198,133,151,29,-141,-110,-207,115
1222,9314,418,392,425,280,77,48,-269,-972
452,9066,334,383,452,247,-14,18,-290,-1230
-718,9581,-41,259,420,81,-219,-96,-316,-1147
-803,9331,-164,204,375,-43,-232,-191,-442,-1243
20,8295,-10,233,419,-14,-147,-110,-382,-993
199,6840,-19,188,385,-58,-342,-105,-268,-629
-407,5088,-156,-52,66,-291,-620,-247,-185,-190
-588,3363,-230,-213,-221,-302,-517,-298,-168,-160
-220,2212,-194,-169,-263,-36,-54,-132,-121,-288
481,980,58,-43,-236,139,201,80,39,-313
403,-612,105,-74,-276,217,364,218,315,48
-127,-1765,-189,-403,-549,53,361,169,623,1475
191,-2170,-343,-641,-780,-273,149,-67,636,2743
938,-2249,-415,-643,-718,-321,196,-115,493,3149
1330,-2097,-224,-332,-348,-91,369,22,220,2186
567,-1938,188,211,246,363,617,193,-214,-267
-643,-1769,283,485,572,633,767,323,-319,-1527
-638,-1214,205,338,392,408,494,213,-259,-1318
239,-342,254,191,174,193,236,205,-32,-792
808,233,310,205,94,79,66,199,211,5
-183,-15,195,204,73,23,-22,139,191,9
-1499,-1011,52,155,120,4,-36,132,101,-509
-1631,-2146,41,142,173,-6,-95,98,-85,-977
-962,-3430,95,188,263,7,-133,-2,-361,-1306
-286,-4948,95,69,163,-123,-283,-159,-466,-967
146,-5950,-84,-231,-125,-360,-461,-250,-377,-469
856,-6119,-109,-248,-130,-263,-375,-152,-257,-186
1077,-5794,-54,-96,-19,-66,-187,-94,-164,-178
371,-5453,-41,72,94,52,-51,-71,-30,-236
-429,-5138,-133,63,67,-6,-129,-191,-136,-478
-94,-4844,-205,-77,-9,-74,-84,-212,-113,-215
690,-4549,-88,-89,48,-5,11,40,252,783
429,-4274,9,-17,159,207,193,274,474,1579
-69,-4026,-17,-50,113,348,461,389,475,1454
-61,-3777,-9,-63,25,337,531,372,366,633
-75,-3538,188,21,6,232,303,173,87,-397
-154,-3330,210,-3,-2,155,154,20,-70,-772
-683,-3140,-92,-202,-184,-74,-41,-138,-118,-505
-346,-2948,-383,-410,-390,-382,-328,-299,-76,299
216,-2793,-528,-440,-350,-404,-310,-263,3,832
-24,-2632,-407,-170,21,-57,34,71,236,1090
-396,-2455,-82,233,464,437,494,489,451,1049
-565,-2309,98,245,344,357,380,299,59,50
-58,-2179,127,87,46,0,-9,-91,-389,-1182
824,-2045,271,87,-110,-185,-205,-222,-490,-1749
1350,-1917,400,131,-100,-141,-169,-86,-350,-1194
465,-1805,265,77,-46,-69,-99,57,-57,-223
-806,-1679,95,48,25,79,66,165,182,374
-888,-1568,-145,-122,-107,-4,29,102,154,576
-632,-1467,-294,-268,-261,-193,-163,-93,-101,3
-466,-1373,-239,-184,-209,-172,-191,-166,-292,-692
230,-1282,3,-34,-79,-44,1,-100,-233,-522
1122,-1206,188,82,42,100,193,47,-25,12
995,-1139,309,218,190,277,315,268,219,130
375,-1071,270,225,186,283,347,367,447,377
-555,-1005,-16,-28,-75,15,129,278,590,1230
-1033,-956,-270,-235,-266,-185,-52,166,622,1963
-701,-938,-516,-316,-321,-285,-143,22,311,1032
410,-901,-389,-126,-132,-188,-54,-32,-35,-715
1018,-835,-30,108,89,-18,49,-12,-212,-1522
959,-784,94,76,13,-121,-94,-61,-93,-507
257,-728,-172,-158,-180,-330,-279,-149,32,645
-5,-681,-392,-261,-261,-452,-401,-223,-3,1157
8,-648,-259,-60,-22,-247,-238,-87,2,974
-294,-586,-130,16,51,-166,-226,-48,-107,59
-897,-539,20,173,214,36,-50,81,-52,-319
-1739,-489,253,388,449,316,193,218,26,-744
-1129,-423,193,321,358,248,87,61,-178,-1151
-1,-296,154,154,92,37,-152,-205,-342,-1011
264,-57,234,224,164,234,25,-132,-378,-1474
251,240,136,208,245,416,207,30,-407,-1936
428,470,122,111,130,262,120,33,-261,-1340
236,315,323,181,22,-5,-92,-3,28,-486
109,-230,230,96,-92,-180,-200,99,414,212
381,-418,-100,-250,-422,-403,-417,-28,456,1114
1196,40,-295,-516,-707,-512,-517,-261,248,2226
1320,3787,-402,-551,-653,-381,-229,-211,289,3232
-52,7017,-288,-203,-160,148,490,285,767,3478
-1638,5641,49,310,435,643,916,652,790,2065
-1745,4999,71,366,498,518,716,462,138,380
-982,5123,-104,173,314,189,273,25,-491,-2068
-251,5926,151,310,428,170,58,-121,-758,-3571
-369,6813,404,508,583,267,-31,-39,-653,-2955
-342,7793,426,509,509,201,-155,-48,-450,-1845
-79,8656,357,372,252,17,-310,-158,-347,-1198
90,9573,216,200,-20,-222,-533,-318,-352,-1123
-114,9562,195,104,-141,-269,-581,-332,-277,-1021
-156,9146,164,36,-141,-100,-390,-253,-235,-861
432,8714,175,37,-127,189,43,-73,-152,-347
1306,8080,285,95,-118,410,426,105,47,724
1676,7089,277,78,-156,429,578,191,272,1269
1026,5906,64,-41,-204,144,298,190,338,854
85,4598,-136,-189,-305,-163,-78,105,299,355
-154,3371,-74,-227,-380,-332,-360,-78,92,40
478,2494,35,-164,-277,-290,-326,-150,-3,228
698,2055,42,-120,-215,-182,-96,-129,-31,180
-335,1421,65,-54,-130,-20,151,25,-12,-107
-1017,480,104,72,49,134,213,107,-55,-325
-723,333,82,93,45,81,71,-97,-400,-575
-87,592,-42,-62,-158,-162,-206,-276,-453,-318
21,430,-172,-206,-278,-275,-336,-253,-160,281
-432,-47,-152,-178,-154,-123,-255,-118,104,446
-470,-766,-169,-115,39,128,-93,-5,238,1115
344,-1316,-329,-205,70,212,-51,-43,296,2087
1190,-1947,-318,-266,0,57,-152,-104,420,2373
1120,-3323,-335,-300,-53,-52,-24,116,675,1982
-241,-5383,-252,-209,17,-60,77,273,676,632
-739,-6772,-153,-184,-101,-268,-227,-7,166,-546
551,-6925,-43,-206,-286,-371,-163,-192,-130,20
1006,-6625,100,29,-93,-127,213,16,-125,4
-1079,-6251,411,477,322,257,430,220,-207,-961
-1870,-5877,692,630,521,356,360,198,-368,-1944
-564,-5521,427,325,361,278,204,161,-351,-2201
488,-5170,-102,-252,-172,76,-162,-209,-368,-1455
672,-4846,-62,-292,-266,159,26,-76,-40,-211
454,-4535,-217,-415,-424,111,275,88,240,865
168,-4252,-258,-380,-394,8,330,159,467,1581
22,-3878,-533,-628,-636,-322,75,8,612,1967
116,-2736,-623,-776,-778,-561,-227,-105,586,2163
894,373,-351,-472,-439,-399,-194,-42,462,2896
639,1473,14,164,342,133,204,137,147,1982
-262,655,234,676,804,307,248,143,-19,297
-261,-98,155,743,687,24,-152,-62,-145,-1257
-482,-1092,177,866,705,-41,-291,-128,-331,-1701
-1085,-2484,402,868,777,70,-230,-132,-578,-2372
-904,-3066,411,496,411,-123,-364,-292,-741,-2816
183,-3271,328,25,-138,-328,-421,-458,-771,-2599
751,-3198,254,-183,-390,-292,-263,-265,-418,-1550
448,-2997,246,-157,-325,-5,96,99,-33,-897
-105,-2800,262,-38,-45,415,557,349,37,-859
-230,-2619,127,-60,142,737,1028,588,213,-452
-256,-2364,76,-144,48,604,905,406,85,-298
-421,-1911,205,-73,25,326,578,192,-58,-407
-353,-980,186,-16,47,112,367,229,170,-38
334,1129,37,-95,-78,-99,42,129,237,709
795,2916,-216,-322,-365,-417,-400,-233,30,909
582,3395,-440,-533,-614,-636,-620,-399,-8,1020
1012,2976,-320,-374,-408,-395,-286,-149,252,1305
636,1491,-284,-246,-211,-164,48,57,446,1601
-900,-638,-248,-115,-65,19,181,60,315,956
-1273,-1865,48,61,92,146,117,-65,-88,-380
-461,-2464,73,63,168,126,-7,-207,-316,-1017
311,-2581,35,68,264,115,53,-117,-99,-64
274,-2447,-64,138,356,133,157,102,231,1288
-622,-2324,-318,42,269,18,44,203,355,1094
-1464,-2207,-340,73,376,-68,-175,68,-31,-537
-1039,-2085,-254,209,498,-121,-335,-117,-392,-1370
-145,-1956,-236,218,264,-187,-416,-230,-382,-1195
636,-1809,-100,158,27,-42,-125,-196,-341,-963
860,-1661,177,195,67,183,157,-68,-288,-1126
602,-1558,460,219,31,175,93,-158,-436,-1435
815,-1492,425,-59,-322,-110,-174,-439,-742,-1492
1037,-1472,240,-233,-461,-175,-27,-274,-431,-191
642,-1413,250,-165,-282,7,259,71,-7,725
-175,-1340,228,-129,-87,122,297,359,453,1098
-943,-1255,-37,-344,-228,-96,6,360,677,855
-525,-1165,-99,-363,-223,-98,-32,365,591,764
-76,-1087,-105,-308,-169,-53,-2,227,352,463
-141,-1011,-80,-262,-165,-74,-31,38,70,-398
104,-964,-44,-193,-101,-9,101,108,15,-512
364,-923,-178,-276,-128,-93,8,66,8,38
230,-859,-227,-304,-146,-149,-113,-40,-36,227
496,-796,-57,-141,-27,-6,30,-64,-187,-243
374,-756,5,-54,29,45,57,-119,-255,-581
-98,-723,154,230,236,53,-71,-121,-457,-1196
-620,-674,-52,84,84,-126,-282,-189,-308,-497
-1143,-622,-268,-81,-83,-223,-365,-197,-134,-221
-845,-574,-287,-66,-35,-31,-83,44,167,89
-349,-551,-95,110,153,162,27,151,309,190
79,-532,40,223,265,237,-25,35,179,128
577,-487,57,173,206,172,41,-33,221,674
780,-469,4,46,99,95,225,138,659,1757
177,-444,-243,-156,-78,-92,102,218,826,2167
-749,-421,-525,-365,-266,-342,-131,-23,446,934
-1072,-395,-479,-304,-226,-356,-239,-321,-346,-989
-317,-373,147,235,268,82,71,-264,-868,-1689
227,-353,438,518,468,275,255,-42,-532,-1026
761,-347,111,219,85,-114,-83,-200,-249,164
813,-334,-224,-146,-291,-436,-395,-362,-190,781
1119,-288,-370,-363,-438,-552,-567,-499,-187,1068
1662,-266,-233,-286,-294,-389,-426,-367,70,1298
1305,-247,-194,-250,-224,-258,-244,-113,290,1227
-662,-235,-116,-76,11,82,132,199,305,357
-2022,-225,-3,126,202,376,374,336,177,-790
-936,-201,-7,153,148,313,260,277,207,-250
-318,-186,-266,-6,-9,84,-26,92,52,138
-395,-175,-55,165,171,64,-172,-80,-399,-950
-15,-169,391,485,479,131,-221,-244,-828,-2314
-98,-166,525,642,651,151,-233,-279,-732,-2235
-241,-155,448,604,648,147,-155,-124,-277,-1099
-305,-154,261,426,530,123,-33,168,239,-257
-369,-138,93,182,284,35,-41,247,389,33
-477,-131,-167,-155,-73,-8,77,192,377,70
144,-131,-173,-347,-430,-65,109,122,502,609
736,-116,161,-217,-518,-40,90,-7,359,680
431,-107,281,-100,-483,-34,-21,-113,58,82
-406,-102,230,-13,-305,12,-22,-151,-230,-589
-133,-90,364,218,60,206,158,-154,-551,-949
574,-72,275,166,130,249,211,-189,-601,-759
382,-67,54,24,68,176,163,-69,-349,-672
47,-66,24,115,115,155,124,153,0,-297
289,-59,-26,140,104,13,-96,116,159,246
698,-41,-32,170,97,-54,-261,62,311,1028
399,-38,-89,108,-35,-16,-143,171,544,1496
-353,-35,-240,-135,-242,0,112,201,608,1603
-890,-43,-186,-198,-235,-8,159,90,298,604
-573,-50,-114,-160,-177,-71,75,-19,-6,-553
340,-55,-191,-111,-91,11,267,10,-190,-656
745,-53,-198,-121,-19,-17,284,49,-153,127
-314,-40,-216,-169,-129,-211,43,-7,-71,491
-1158,-44,-120,-150,-238,-298,-99,-55,-88,-3
-924,-43,18,6,-68,-168,-99,-26,-146,-541
75,-17,103,90,68,-72,-105,-104,-273,-603
744,-4,165,128,114,28,12,-84,-159,348
1266,5,177,-66,-130,-142,-82,-127,58,948
1485,30,131,-260,-352,-384,-349,-271,37,361
192,42,16,-194,-266,-175,-182,-240,-219,-767
-643,47,19,-1,2,237,188,-115,-482,-1329
-414,52,101,98,132,372,346,88,-189,-481
-140,29,-117,-115,-81,118,155,54,24,-65
522,23,-216,-172,-106,45,154,105,179,712
827,34,-209,-126,-64,-31,125,166,386,1879
-533,23,-48,76,130,66,172,240,401,931
-2081,20,179,245,286,179,195,225,182,-684
-1574,30,194,210,226,114,86,109,-37,-1256
-441,50,-59,-58,-128,-226,-267,-167,-195,-684
531,56,-68,-79,-308,-432,-417,-315,-173,23
1319,66,55,83,-248,-382,-317,-253,33,917
1678,95,269,228,-64,-162,-112,-12,355,1466
600,195,283,243,52,6,64,170,525,913
-1036,1053,153,164,98,65,50,60,27,-995
77,3165,-25,-6,43,-26,-92,-203,-373,-1289
286,4601,-509,-288,-40,-127,-191,-187,-130,485
-617,5141,-755,-290,118,45,-49,113,193,1938
-1497,5202,-281,173,582,438,327,574,522,2112
-1343,5285,429,589,836,552,308,428,49,-419
24,5448,569,408,479,94,-308,-216,-849,-2841
576,4508,350,144,120,-303,-713,-379,-815,-2505
820,3308,301,152,32,-388,-802,-332,-449,-1109
875,2525,283,118,-43,-408,-904,-403,-256,-396
-147,1434,-12,3,-65,-345,-822,-318,-97,-431
-1419,-82,-256,-67,-57,-203,-542,-160,15,-315
-933,-831,-287,-173,-97,-123,-383,-142,9,547
579,-954,-265,-252,-123,95,25,-24,230,991
1514,-865,-246,-377,-321,375,760,293,707,1196
1092,66,-178,-370,-382,587,1359,571,914,1028
-187,5794,-251,-375,-419,398,1117,578,907,1233
-583,12890,-104,-306,-359,138,537,371,567,836
205,13112,182,-63,-39,275,426,264,121,-118
84,11909,300,231,311,389,366,196,-186,-773
-173,11866,233,483,538,306,189,111,-390,-1362
-64,12234,158,555,528,96,-94,-57,-566,-1357
-524,11630,217,613,580,-50,-328,-227,-715,-1353
-816,10176,85,476,554,-62,-417,-175,-473,-793
-550,8068,-53,212,352,-89,-468,-158,-182,4
-13,5653,-100,21,86,-107,-397,-169,-31,553
67,3802,-115,-27,-98,-46,-247,-107,62,664
-45,2331,-64,-65,-164,112,0,-31,10,-151
117,1387,-61,-215,-294,183,276,17,52,-537
205,631,-92,-318,-238,201,456,56,64,-321
111,143,100,-230,-51,207,370,81,-28,11
160,405,218,-90,44,186,238,5,-166,-35
705,2080,281,-65,1,66,100,-73,-188,-25
941,3163,97,-216,-82,-69,49,-8,83,405
218,3898,-177,-232,-31,-53,98,80,235,406
-473,4558,-269,-75,0,-24,3,-21,120,6
-744,4686,-218,56,97,134,118,55,267,453
-625,4613,6,177,281,349,326,116,227,1204
630,4499,154,100,219,314,267,24,-3,1454
2094,4466,182,-80,-27,179,197,18,8,1189
1552,3821,133,-141,-144,59,144,-15,-74,301
-467,2370,61,-74,-114,59,172,30,-144,-27
-1652,983,-72,-79,-172,26,159,83,-55,251
-1254,345,-210,-194,-272,-156,-97,-130,-171,238
-599,-290,-128,-127,-190,-145,-141,-145,-184,-547
-217,-1063,45,77,38,88,80,115,0,-1239
75,-935,342,270,221,240,219,247,27,-1262
108,-510,299,195,158,149,108,191,20,-110
23,-26,-25,-42,-59,-66,-100,20,62,762
33,830,-295,-266,-305,-285,-285,-168,52,644
-76,1426,-270,-274,-340,-317,-314,-134,161,-214
303,2316,-173,-201,-312,-367,-420,-126,147,-529
818,3331,-196,-153,-260,-356,-450,-101,50,-385
1339,3964,-80,-45,-94,-140,-192,97,71,-40
1605,4186,74,-15,-54,-83,-87,131,133,391
634,3736,260,207,166,38,-14,107,44,564
-448,3143,400,440,319,121,18,91,132,388
-1494,2601,227,419,319,175,60,2,-33,-678
-1653,2200,21,335,276,140,28,-195,-508,-1465
-684,2074,63,247,149,-51,-169,-319,-531,-601
2,1879,104,117,-19,-229,-314,-319,-380,125
27,1679,23,-54,-118,-271,-267,-285,-337,-69
-44,1643,-65,-107,-10,55,145,-87,-343,-282
167,1890,-49,-96,40,323,442,98,-164,70
-220,2203,-213,-240,-160,195,365,240,346,1228
-228,2964,-480,-423,-404,-114,124,333,883,2663
14,3949,-536,-414,-447,-387,-142,161,836,3116
-153,4643,-404,-294,-344,-414,-298,-21,590,2132
-741,5097,-158,10,65,16,-8,90,182,-521
-159,5646,32,85,165,109,-9,-48,-393,-1776
1046,5740,211,147,218,175,43,-51,-506,-1783
1337,5482,382,338,389,360,237,46,-400,-1496
692,5149,299,321,313,244,166,-50,-456,-1489
-72,4803,16,87,83,11,27,-81,-327,-1055
-40,4430,-24,30,9,-31,35,28,-52,-631
65,3989,-45,119,-6,-5,48,131,113,-481
-772,3467,-29,88,-149,-32,46,190,170,-380
-886,3386,210,198,-56,53,129,244,212,-130
-402,3507,240,84,-114,-92,-41,130,322,390
-174,3393,-33,-213,-314,-280,-232,-8,328,627
229,3287,-181,-248,-278,-204,-191,-19,235,799
521,3119,-94,-139,-148,-135,-150,18,196,1150
703,2952,77,-25,-88,-202,-250,-32,73,1093
277,2775,54,-23,-124,-221,-304,-103,-65,345
-38,2625,81,35,-68,-183,-379,-246,-366,-866
900,2467,259,115,-81,-216,-469,-494,-683,-966
918,2327,122,24,-272,-171,-217,-573,-634,-22
-45,2177,-19,61,-147,150,389,-200,-343,356
-594,2050,50,228,134,419,692,289,246,995
-1145,1922,-173,30,6,251,541,493,851,1927
-1903,1810,-471,-278,-199,-14,313,478,989,1509
-1274,1691,-245,-112,-22,6,184,351,559,311
192,1581,36,87,132,12,-18,99,11,-333
340,1479,-71,-5,86,-88,-157,49,-28,-1072
94,1379,-31,36,152,-57,-137,128,9,-1790
51,1279,198,145,206,-93,-268,-25,-265,-2073
72,1218,171,-28,-79,-443,-704,-374,-529,-1600
774,1150,-146,-348,-441,-716,-1054,-548,-414,-138
1119,1077,-310,-425,-446,-510,-861,-370,-29,968
503,1009,-270,-245,-171,-5,-229,-38,226,1048
325,971,-205,-81,9,251,300,146,402,1194
753,926,-403,-193,-181,-25,181,62,511,1817
777,867,-391,-164,-227,-166,109,47,450,1547
98,801,-224,-153,-299,-241,28,4,342,864
-765,758,-54,-122,-242,-69,159,56,130,343
-697,705,-128,-171,-185,136,293,105,17,914
-704,669,-386,-332,-291,64,289,50,139,1384
-1785,617,-93,91,214,452,720,291,-79,-161
-2345,577,587,788,916,1009,1205,552,-575,-2633
-327,537,785,847,888,798,839,75,-1284,-3068
1267,504,592,499,516,321,260,-289,-1208,-1962
1862,465,491,229,208,-23,-55,-195,-470,-1158
1994,415,461,227,201,-43,-37,164,338,-123
1721,394,320,196,198,-22,-23,220,453,33
621,389,54,37,95,-150,-183,-2,121,-420
-856,376,-222,-159,-85,-327,-466,-235,-157,-854
-1175,364,-318,-199,-136,-206,-398,-234,-132,-469
-519,345,-176,-121,-54,30,-23,-36,126,176
47,327,-36,-66,-93,68,79,131,459,577
-149,311,-18,-141,-317,-174,-169,9,468,479
-366,299,-30,-123,-281,-223,-210,0,445,299
-446,269,-12,7,-27,88,151,292,624,514
-470,255,3,-1,10,260,361,384,641,1058
-201,240,8,12,-25,256,407,228,293,1169
-69,229,44,50,2,235,425,48,-174,465
278,208,-49,-136,-171,-43,127,-195,-394,229
1770,188,28,-199,-292,-329,-250,-323,-267,1515
1882,175,-106,-349,-475,-613,-581,-472,-190,1649
-329,155,-101,-188,-276,-414,-396,-363,-177,-188
-2474,127,157,261,286,137,80,-115,-426,-2751
-2300,105,255,536,669,476,340,118,-395,-2878
-287,102,334,587,675,451,315,241,-57,-1087
1047,119,227,377,392,185,109,240,149,-206
1120,127,68,157,79,-156,-214,138,171,-23
482,130,-48,54,-65,-267,-306,135,290,272
-436,126,-5,91,10,-109,-157,295,534,794
-1387,124,-155,14,51,-73,-243,193,371,369
-1155,106,-146,-96,-30,-115,-442,-202,-167,-203
1312,90,59,-170,-40,28,-186,-360,-480,-565
1250,67,144,-125,-5,28,-89,-192,-307,-516
581,46,92,-219,-179,-148,-276,-207,-247,-360
631,25,-80,-395,-416,-297,-373,-348,-270,48
922,-36,-153,-435,-455,-124,35,-268,-154,723
500,-223,-63,-341,-325,155,499,-33,89,1409
-200,-613,94,-23,82,399,705,247,299,1741
-717,-992,87,125,290,335,555,399,437,1057
-1051,-1106,-224,-122,52,-7,214,275,350,147
-907,-910,-255,-162,9,-98,29,30,-93,-884
-378,-580,188,265,330,189,129,-57,-538,-1177
-479,-429,230,374,338,265,213,-21,-496,-798
-742,-337,104,162,146,159,231,62,-200,-574
-103,-97,125,31,-68,-83,0,46,174,-256
1033,122,-25,-230,-310,-337,-265,-58,375,241
1700,150,-134,-306,-246,-317,-280,-71,312,338
1368,-25,-104,-205,-123,-253,-284,-136,193,288
169,-683,-88,-91,49,-120,-213,-106,108,593
-981,-1851,-131,93,345,164,105,189,382,838
-1234,-2939,-140,228,510,372,321,319,301,554
-1409,-4032,25,215,395,314,241,240,-57,-140
-819,-4663,213,158,162,41,-52,15,-371,-1093
170,-5038,290,120,-6,-113,-184,10,-206,-978
323,-5297,167,-6,-166,-190,-260,-2,-31,-466
595,-5227,-30,-171,-319,-327,-342,-94,7,-67
1028,-4652,-141,-372,-543,-585,-611,-379,-208,17
1378,-4020,-200,-446,-588,-658,-835,-484,-73,967
910,-3899,-157,-205,-233,-195,-426,-151,263,1326
328,-3556,-92,77,132,348,212,67,183,597
-286,-2801,-50,182,252,514,420,215,255,573
-1033,-1971,21,187,234,414,346,255,261,554
-1278,-1552,59,194,260,312,333,202,37,-298
-558,-1646,127,263,360,376,504,272,23,-389
-120,-1753,-81,-4,108,193,376,79,-109,-263
-565,-2380,-61,-94,26,108,279,-108,-409,-895
-850,-3205,5,-62,56,132,321,-183,-550,-1314
-358,-3725,-36,-100,-10,21,192,-213,-478,-804
265,-3990,-31,-93,-28,-107,-11,-229,-393,-526
621,-4081,125,62,58,-185,-204,-208,-260,-377
446,-3996,-15,37,-19,-292,-331,-159,-51,-88
152,-3744,-220,-102,-122,-350,-296,-94,229,1065
287,-3483,-100,-28,56,-128,-49,103,446,1740
1185,-2851,109,112,204,159,174,235,431,1353
1671,-1391,165,70,62,232,148,34,-68,0
1098,8,192,96,21,271,180,-173,-604,-734
-526,1309,178,140,-5,281,244,-246,-864,-643
-1489,2790,140,140,4,246,270,-233,-809,-579
-1122,3969,-130,-112,-159,-15,44,-252,-576,-161
-469,4417,-359,-326,-371,-260,-219,-153,-109,752
-489,4401,-475,-324,-340,-240,-221,89,452,1636
-575,4193,-464,-236,-197,-102,-108,238,635,1399
52,3864,-446,-313,-288,-221,-224,272,827,1312
709,3543,-164,-244,-281,-281,-301,175,694,653
1318,3285,118,-28,-92,-158,-218,73,404,-181
1146,2816,413,333,297,178,76,243,327,-572
489,2350,627,610,604,451,321,444,213,-1309
-108,2236,553,538,525,363,251,370,66,-1587
-1259,2310,362,345,330,154,79,183,-80,-1547
-1664,2461,239,262,270,43,5,175,-4,-1146
-1099,2679,53,155,177,-93,-103,142,54,-787
-98,2801,-74,6,11,-275,-294,31,58,-535
784,2703,-127,-66,-115,-364,-410,-22,167,34
1001,2567,-166,-194,-274,-443,-464,-153,120,806
188,2407,-240,-359,-414,-512,-557,-392,-118,855
-502,2258,-423,-568,-625,-659,-838,-682,-380,295
578,2131,-304,-493,-551,-387,-528,-588,-285,464
1558,2005,-63,-216,-222,200,234,-235,-51,898
802,1873,-61,-49,25,548,752,184,297,844
-301,1764,31,97,140,527,712,219,112,326
-753,1661,203,306,304,499,618,113,-237,403
-1199,1559,189,315,322,430,584,172,-148,641
-1988,1442,104,272,318,396,554,266,-118,-115
-762,1360,70,191,212,178,278,166,-222,-793
568,1303,-3,105,123,-52,-32,112,10,-829
818,1224,12,61,51,-229,-319,-32,123,-765
653,1149,-12,-60,-73,-393,-607,-220,30,-970
426,1085,-9,-90,-64,-412,-728,-206,-26,-748
111,1034,180,77,45,-321,-752,-168,-99,-639
554,973,404,258,105,-266,-741,-171,-99,-509
1055,930,353,200,0,-318,-788,-151,42,175
879,870,134,80,-88,-197,-564,-72,138,470
-1,814,-38,-54,-115,144,79,12,79,145
-1209,756,-96,-58,-49,416,526,125,-45,-436
-1239,720,-254,-123,-71,468,666,166,-87,-459
-671,669,-342,-205,-173,490,861,176,-15,-190
-525,630,-247,-176,-218,403,795,211,206,144
-507,585,-152,-146,-222,244,599,307,580,840
-580,543,-277,-223,-303,-33,398,241,640,1307
380,517,-225,-259,-374,-271,94,-20,308,1818
1493,499,64,-110,-218,-252,-16,-163,-47,1591
913,460,135,66,55,-13,142,-150,-338,19
-274,435,213,234,286,229,301,-85,-558,-1356
-818,417,198,250,306,296,368,74,-391,-1208
-443,396,81,161,223,268,346,116,-229,-909
-119,363,-1,63,102,156,210,52,-61,-436
-134,339,-22,-13,-29,-2,23,34,137,352
-326,331,62,49,13,-31,-58,6,44,396
-140,316,1,77,93,-55,-120,42,85,202
475,305,-19,73,110,-82,-151,102,167,-287
727,276,-10,37,73,-93,-161,63,191,-319
212,246,-36,-14,-40,-182,-246,-35,184,192
-476,236,-31,-77,-166,-266,-306,-50,310,1245
-456,226,-221,-220,-262,-293,-282,-7,431,1110
-356,200,-255,-124,-114,-121,-166,4,234,78
352,182,-78,-7,-56,-67,-204,-171,-175,-394
2226,179,207,52,-104,-244,-435,-441,-431,29
3040,169,339,160,86,-164,-327,-347,-325,212
1207,155,215,223,311,178,139,119,58,69
-1681,147,2,86,222,278,298,351,301,-33
-1997,137,-42,2,17,68,60,166,177,-276
-1366,123,45,-5,-23,-12,-16,48,81,-586
-996,115,96,80,209,187,166,60,-69,-646
-1139,113,2,124,310,248,163,-29,-335,-466
-810,110,-205,0,106,76,26,-110,-301,-70
-236,109,-189,-110,-115,-77,-76,-161,-241,-43
235,83,48,-60,-196,-150,-155,-290,-350,-247
695,85,246,62,-137,-74,-105,-247,-350,-291
1994,76,251,-30,-202,-70,-98,-165,-173,71
2738,67,269,-123,-221,-93,-96,-67,152,501
1448,52,219,-49,-95,-12,21,110,517,759
-672,-5,-153,-189,-297,-272,-195,42,527,949
-1154,-152,-373,-331,-455,-438,-343,29,476,1274
-981,-419,-362,-278,-257,-231,-196,143,454,1289
-2289,-940,-297,-99,53,75,5,248,223,2
-1799,-1202,60,309,464,358,167,265,-231,-1629
-453,-948,170,320,399,236,79,120,-350,-1531
30,-714,250,284,324,151,9,41,-322,-1262
390,-532,294,210,243,13,-212,-73,-296,-790
810,-223,252,95,116,-186,-458,-278,-288,-171
1498,-8,303,94,91,-131,-375,-286,-198,323
1501,48,262,119,167,163,76,-73,-123,295
-453,-185,59,119,319,471,502,177,-91,-225
-1364,-604,-159,26,242,427,398,180,-129,98
-599,-1058,-259,-125,15,157,148,96,-119,439
-176,-1722,-302,-233,-117,-2,116,75,-35,-106
-171,-2608,-156,-160,-105,22,237,64,-92,-397
-289,-3486,-17,-118,-102,-19,116,43,-72,578
-294,-4210,-63,-178,-132,-164,-140,-94,15,1066
-224,-4818,-101,-179,-113,-214,-260,-229,-94,501
349,-5447,-116,-207,-157,-199,-267,-156,-29,-31
1655,-6455,-24,-211,-193,-158,-151,26,457,557
2714,-6428,37,-254,-268,-250,-159,122,837,1270
2349,-5553,0,-281,-314,-304,-179,169,761,909
402,-4616,12,-116,-147,-202,-153,153,222,-610
-1431,-4123,178,208,161,35,-66,83,-358,-1686
-1759,-3407,258,259,178,132,36,37,-432,-1174
-1185,-2050,52,67,16,130,167,11,-286,-537
-1063,-1190,-80,40,25,98,146,26,-137,-193
-578,-823,52,212,170,117,110,126,76,74
-10,-342,118,240,189,39,-38,140,190,288
312,-145,-48,52,0,-103,-200,-43,50,247
1284,-494,-35,-16,-75,-45,-67,-153,-127,112
2060,-789,26,-16,-39,27,84,-123,-125,176
1225,-1173,29,-81,0,109,212,-102,-156,3
-717,-1759,0,-102,33,179,185,-54,-180,-155
-1757,-2115,-74,-88,59,215,116,-26,-138,253
-853,-1783,-348,-240,-148,91,132,-127,-160,665
176,-1104,-542,-563,-548,-240,1,-409,-216,887
777,-478,-413,-502,-476,-238,-33,-411,-88,1226
446,-39,-120,19,210,296,447,115,261,1815
-810,521,75,376,678,600,719,364,169,304
-605,1801,108,324,549,352,389,205,-131,-1571
-838,2834,92,302,533,301,245,207,-171,-2110
-1260,3436,116,281,517,349,263,317,63,-1764
-1137,3720,58,199,342,186,79,332,196,-1221
-510,3638,101,263,248,48,-79,314,210,-511
64,3439,188,312,130,-75,-207,229,217,604
369,3200,209,255,11,-226,-463,-33,117,990
232,2994,43,-1,-203,-375,-677,-297,-39,489
89,2755,-93,-200,-360,-292,-593,-291,-18,125
-64,2353,-50,-211,-374,-96,-387,-181,74,521
-8,1903,-170,-363,-583,-128,-58,-164,218,1594
569,1581,-265,-516,-776,-341,136,-124,323,1854
875,1415,145,-53,-137,-112,291,212,240,91
284,1448,213,211,226,78,359,277,13,-884
-64,1896,198,341,424,182,308,201,-274,-1380
-598,1979,93,251,326,62,70,-66,-563,-1721
-186,1954,19,81,129,-80,-90,-243,-647,-1446
1131,1897,65,-5,3,-137,-202,-375,-656,-251
2204,1794,14,-88,-113,-104,-243,-492,-750,490
1743,1676,-118,-162,-162,26,-39,-406,-682,438
-358,1527,-236,-142,-133,140,278,-90,-344,76
-1671,1171,-40,34,5,220,444,121,-23,204
-1104,620,55,99,94,251,473,409,724,1147
-332,401,-157,-166,-123,39,268,561,1276,1341
-521,-38,-407,-421,-340,-215,1,278,809,166
-539,-463,-368,-377,-338,-394,-260,-112,108,-1000
51,-779,-269,-241,-286,-426,-392,-237,-112,-461
273,-899,-359,-247,-280,-414,-400,-237,-22,308
4,-883,-207,-52,-29,-185,-202,-77,56,478
-321,-670,113,273,206,17,-18,96,58,-61
-324,-73,223,404,178,102,44,77,-170,-795
210,802,306,423,109,87,-28,-73,-275,-622
1577,1302,361,266,-72,-76,-173,-160,-139,527
2188,1427,392,89,-120,-57,-120,-65,18,1154
1068,1385,330,58,96,184,92,122,62,123
-541,1299,187,20,204,280,148,128,-113,-1001
-1250,1200,209,22,272,338,187,202,-42,-781
-1173,1095,-47,-215,54,149,52,204,209,200
-709,904,-342,-435,-192,-122,-95,180,454,925
-470,741,-447,-489,-293,-263,-163,172,512,1607
-1,595,-195,-207,-75,-182,-171,150,394,1688
-368,-53,114,211,345,45,-61,88,-36,-161
30,-866,236,372,545,103,-72,-41,-393,-1441
279,-1613,330,394,579,50,-182,-92,-406,-1620
-172,-2117,174,344,464,-89,-305,-25,-98,-1004
-159,-2303,17,209,235,-306,-543,-39,138,-476
518,-2168,-111,-75,-87,-443,-750,-177,229,247
1147,-1938,-157,-311,-302,-389,-734,-345,81,545
994,-1911,-122,-350,-233,91,-193,-295,-180,11
514,-1599,-5,-253,-114,594,457,-191,-521,-750
31,-1214,38,-114,-37,658,691,-143,-639,-943
-2,-1074,166,1,-15,413,713,-114,-603,-408
477,-897,-48,-126,-107,196,748,2,-385,568
190,-1076,-294,-230,-174,55,609,-19,-346,801
-746,-1835,-70,-70,-32,76,415,-52,-354,532
-1539,-3222,72,116,214,252,417,160,-98,-335
-1305,-4418,16,198,358,311,431,517,441,-992
-448,-5137,-79,88,218,75,176,378,597,-910
182,-5772,-102,-106,-45,-244,-182,31,479,69
600,-6424,-84,-284,-255,-419,-375,-108,402,1306
687,-6732,-231,-297,-157,-268,-139,126,694,2577
173,-6524,-298,-161,48,-28,139,313,734,2183
-549,-6108,-111,0,103,-57,46,127,310,444
-1154,-5429,66,184,144,-55,-28,7,-126,-1734
-665,-4292,265,351,181,41,18,-20,-505,-2415
-121,-3302,363,337,96,33,28,22,-399,-1569
170,-2028,323,241,-65,-103,-123,-67,-260,-1085
644,-631,233,203,-160,-136,-261,-156,-243,-788
966,-58,241,221,-56,52,-134,-74,-149,-438
1175,203,158,113,-39,159,89,-48,-88,-92
961,216,45,-82,-179,22,7,-93,11,360
875,-146,-131,-296,-371,-254,-239,-177,168,910
1193,-398,-323,-472,-531,-480,-308,-165,298,1182
675,-76,-559,-593,-585,-516,-238,-79,316,1378
-962,-1003,-357,-333,-263,-138,100,195,404,1340
-2310,-2408,118,165,323,420,601,558,515,645
-2131,-2801,352,472,634,610,675,535,303,-363
-643,-2189,146,254,348,223,209,83,-36,-456
270,-1489,-173,-137,-61,-207,-243,-270,-84,1067
1216,-936,-234,-207,-89,-200,-241,-282,-16,2219
1183,-197,-201,-94,93,-9,-78,-233,-286,302
265,614,-40,45,204,60,-56,-280,-680,-2168
-805,1192,117,44,123,-3,-124,-298,-733,-2190
-629,1947,178,-48,-47,-94,-135,-146,-220,-289
-260,3031,-57,-198,-244,-191,-155,34,242,242
-516,3559,-208,-291,-325,-203,-117,255,429,-9
-762,3028,131,-36,-45,38,63,245,188,121
291,2720,369,184,161,193,165,63,-177,99
1742,2376,325,161,120,149,114,-66,-263,-147
1828,1631,113,-43,-101,-109,-117,-277,-329,-607
811,587,-68,-180,-280,-283,-243,-275,-237,-801
-517,-698,-62,-77,-166,-125,-31,15,3,-825
-471,-1791,9,101,95,92,176,219,96,-314
-502,-2710,56,210,276,253,300,306,128,-150
-1029,-2794,105,219,308,288,277,258,24,-652
-1056,-2271,62,152,274,233,212,191,-46,-704
-679,-2119,10,201,348,289,238,196,-65,-257
-359,-1762,-38,221,302,211,128,111,-112,-54
90,-1209,54,166,135,9,-66,-6,-97,-57
577,-528,-42,-9,-38,-105,-190,-34,44,175
168,14,-143,-102,-81,-56,-151,-8,164,293
-579,178,-106,-41,-12,27,-86,-23,133,205
-418,-116,54,39,5,-3,-135,-133,-49,429
1007,-531,89,-52,-154,-196,-241,-241,-69,689
2335,-811,6,-252,-391,-418,-315,-275,139,1147
1667,-821,-172,-390,-533,-554,-444,-323,210,1392
-178,-1484,-341,-406,-506,-517,-399,-174,444,1791
-938,-3424,-303,-185,-165,-160,-12,287,884,1744
-1559,-5166,-237,93,256,274,430,686,1017,970
-1676,-5919,28,419,627,517,571,677,551,-234
-627,-5835,163,494,668,349,248,146,-310,-1339
24,-5740,188,469,638,218,39,-199,-742,-1603
-84,-5671,155,359,559,93,-54,-158,-587,-1492
-45,-5366,64,242,334,-103,-218,-124,-361,-1041
-135,-4772,30,101,71,-264,-378,-168,-268,-775
-211,-4109,134,45,-113,-349,-525,-226,-273,-666
-75,-3218,41,-62,-371,-424,-602,-258,-190,-81
-169,-2334,-89,-161,-472,-319,-433,-298,-228,163
114,-1286,-102,-240,-442,-136,-337,-335,-263,716
378,-327,-161,-349,-433,73,-202,-279,-50,1604
-37,-449,-257,-346,-382,381,438,4,97,833
-146,-1368,-14,-51,-62,651,931,258,38,-375
1152,-2308,468,284,258,700,998,387,62,-729
2522,-2622,474,220,153,286,620,291,190,-165
1272,-3143,114,12,-6,-3,303,78,5,226
-868,-3280,-48,-8,32,29,211,45,-144,-253
-1247,-3561,-94,12,52,-1,100,192,206,-464
-558,-3538,-58,-24,-4,-95,15,237,405,-495
34,-2983,23,-27,-36,-127,-65,59,112,-386
298,-2270,74,-12,-51,-128,-113,-57,-20,-160
177,-1477,56,-7,-27,-50,-41,4,78,477
-292,-931,-26,-32,-14,14,22,141,261,1048
236,10,-125,-175,-202,-220,-263,15,360,1080
1333,1341,-190,-298,-383,-493,-555,-186,363,1103
803,2223,-268,-237,-261,-469,-549,-284,146,573
-111,2534,-172,50,71,-239,-399,-278,-60,-57
-1198,2133,-78,304,319,206,97,178,271,464
-921,1227,111,213,187,185,131,123,99,-221
520,705,234,51,-136,30,27,-131,-396,-1148
693,-44,294,85,-187,155,221,-139,-661,-809
-305,-1226,204,72,-173,224,355,-83,-650,-13
-360,-2307,-2,-55,-184,114,268,-53,-422,679
21,-2976,-109,-141,-146,49,192,71,-84,652
191,-3010,192,46,77,166,233,202,60,-305
-272,-2698,153,-25,-30,-42,-72,1,-14,-1136
-599,-2344,89,33,35,-54,-163,17,98,-1109
-368,-1419,58,134,188,69,-38,222,322,-147
-241,1117,-62,1,64,-66,-148,181,326,8
-188,3659,-124,-114,-77,-221,-283,104,331,-240
29,4705,-228,-229,-211,-348,-414,10,366,127
425,5451,-143,-151,-198,-363,-529,-218,84,590
249,5596,-186,-42,-82,-207,-427,-218,-46,792
209,5364,-289,-159,-177,-156,-359,-240,-115,831
686,5069,-225,-216,-228,0,-8,-112,35,1134
742,4793,12,-17,-1,247,383,170,184,1070
-404,3538,75,173,293,349,455,230,-35,-196
-942,2184,73,184,364,278,373,233,74,-391
301,1548,34,25,125,11,79,138,432,1280
795,890,-86,-90,-155,-240,-186,7,505,1489
-324,112,-38,-18,-129,-142,-62,-15,160,-396
-704,68,168,136,59,116,263,-47,-358,-1796
197,473,300,208,173,197,325,-127,-605,-1754
-168,875,234,248,354,336,343,-45,-608,-1547
-656,1269,206,209,317,286,218,-44,-568,-1449
-214,1622,122,93,146,120,41,-81,-365,-796
699,2394,10,-45,2,-1,-42,-96,-204,-205
806,3256,-28,-89,-45,-47,-71,-86,-117,241
294,3515,115,76,104,85,23,22,-17,302
-558,3142,173,168,144,112,32,58,10,-46
-123,2820,22,-39,-145,-184,-237,-130,-38,71
849,2274,-43,-277,-410,-466,-495,-264,57,478
1113,1279,-23,-123,-237,-282,-320,-122,156,561
271,-158,-59,116,93,87,60,124,193,499
-1107,-1579,39,269,303,252,225,139,12,-60
-1793,-2361,63,240,297,168,177,14,-224,-724
-1292,-2640,-56,77,199,40,47,-72,-356,-1013
-676,-2687,-109,41,197,39,-7,-149,-451,-700
-311,-2485,-94,37,149,25,-70,-200,-440,-45
163,-2087,-103,-132,-15,36,-50,-133,-271,662
434,-1434,-234,-451,-382,-174,-191,-121,97,1541
374,-908,-318,-559,-620,-438,-430,-168,341,1959
186,-392,-319,-490,-619,-463,-496,-117,436,2054
678,465,-258,-415,-531,-380,-355,-201,257,1804
1111,1071,-84,-189,-236,-21,142,-9,275,1221
463,893,109,138,176,434,629,322,237,-330
-125,457,471,510,542,654,762,439,52,-1668
-420,-263,575,577,591,590,635,345,-171,-2287
-1002,-1406,262,381,425,451,464,179,-334,-2191
-1231,-2209,-21,215,272,322,311,128,-261,-1619
-481,-2725,-5,117,150,178,166,139,-114,-1019
209,-5192,95,88,144,49,25,90,167,-270
65,-5364,22,115,232,62,10,108,143,-211
150,-5061,-130,6,139,-67,-110,44,120,2
870,-4862,-72,-17,66,-157,-234,-44,99,373
1050,-4502,6,-36,12,-198,-302,-96,108,537
333,-3857,-86,-131,-104,-212,-302,-44,199,1092
-327,-2874,-124,-183,-263,-241,-332,-47,266,1892
-539,-1284,-104,-152,-353,-281,-358,-93,269,1600
-593,-54,-321,-229,-451,-350,-417,-194,133,327
-589,327,-179,-101,-214,-188,-330,-285,-300,-748
-181,438,-63,-40,-89,-128,-354,-317,-499,-618
473,447,-5,38,31,19,-267,-202,-310,-241
794,79,82,103,115,168,-114,-133,-234,-537
353,-1050,6,87,111,240,77,-11,-137,-329
-175,-2027,-38,-52,-62,142,132,102,39,169
137,-2532,57,-133,-159,35,124,82,-25,-20
545,-2900,94,-78,-96,-1,118,-26,-277,-491
394,-3347,89,8,24,43,162,-45,-328,-202
441,-3687,42,0,15,41,165,19,-18,508
685,-3603,-35,-143,-176,-129,27,121,465,1453
292,-3415,-127,-168,-177,-99,64,353,911,1839
-808,-3104,-32,121,140,145,257,464,812,658
-57,1809,-23,56,-8,-17,-134,-84,-120,-196
964,2119,93,-64,-156,-206,-409,-370,-558,-716
1664,1980,116,-213,-235,-281,-468,-407,-525,-623
1875,1343,-61,-289,-223,-234,-335,-337,-386,-203
1596,307,-51,-177,-144,-137,-232,-282,-289,48
744,-768,34,-49,-35,-65,-154,-180,-97,297
-1305,-1880,27,9,42,33,-9,-63,-3,-156
-2950,-2901,97,171,270,296,263,156,99,-622
-2578,-3305,17,126,273,297,288,215,192,-191
-881,-2835,-225,-149,-31,48,220,207,400,875
373,-2260,-226,-129,-51,110,409,329,508,1555
580,-1785,-26,145,99,217,482,422,553,1245
326,-1011,217,368,243,270,448,385,344,2
-95,-23,189,346,232,173,237,93,-64,-1224
-379,1188,108,329,260,81,34,-197,-441,-1526
-726,2319,4,258,275,39,-51,-213,-327,-458
-822,2916,-165,150,237,60,25,8,129,93
-55,3404,-428,-49,-12,-121,-94,40,304,199
776,3551,-374,-173,-245,-280,-248,-108,21,82
1031,2969,117,-146,-326,-258,-235,-158,-198,71
1515,1962,510,-44,-396,-192,-119,-63,-100,-188
1192,1040,425,-52,-328,-51,68,120,59,-595
62,227,139,-158,-270,-4,84,66,-103,-454
-1428,-1008,0,-180,-214,-33,13,-56,-114,-61
-1858,-2063,176,92,66,139,140,-10,-74,-387
-1366,-2326,305,340,274,236,187,11,-225,-953
-1046,-1685,146,303,213,163,104,33,-190,-1438
-345,-773,-23,196,89,56,8,95,132,-715
40,120,-93,51,-53,-121,-162,-3,146,323
68,1020,-142,-89,-120,-175,-221,-94,19,612
318,1808,-143,-178,-181,-275,-333,-209,-133,374
533,2653,51,-113,-108,-276,-362,-216,-138,144
421,3339,79,-174,-79,-188,-267,-46,37,240
-148,3315,-87,-254,-57,-37,-88,82,167,440
-244,3144,-224,-318,-97,20,3,108,328,996
808,3180,-284,-456,-341,-181,-117,-45,407,1824
1369,2649,-223,-407,-429,-342,-253,-170,277,1472
973,1236,106,11,-5,-38,-28,-41,23,101
765,-300,468,435,486,409,367,186,-31,-75
588,-1362,369,426,551,529,527,279,-45,32
67,-2099,75,217,365,381,437,151,-220,-767
-1206,-2842,-83,115,239,237,295,9,-428,-1602
-1892,-3459,17,189,270,254,242,26,-411,-1598
-1045,-3348,19,89,127,123,63,-7,-230,-815
-99,-2734,-264,-284,-295,-237,-285,-96,33,296
661,-1809,-591,-643,-679,-586,-574,-241,292,1298
1527,-1041,-498,-608,-665,-632,-567,-291,443,2112
880,-760,-53,-131,-144,-141,-85,8,498,1532
650,-186,211,217,289,168,212,169,382,786
332,216,286,382,498,290,342,217,279,-56
-707,161,337,568,675,471,504,276,74,-823
-1176,563,251,512,542,362,321,68,-287,-1245
-1242,314,208,409,420,206,99,-103,-480,-1200
-1095,498,136,375,457,171,79,27,-193,-1093
-994,3085,-73,337,411,85,-7,44,-95,-1030
-636,4172,-289,259,231,-56,-154,-8,-95,-463
103,3071,-356,81,-3,-170,-225,5,134,907
455,1927,-257,-126,-211,-361,-356,-144,157,1325
159,753,-237,-307,-422,-474,-415,-217,144,737
-70,37,-192,-346,-518,-488,-459,-169,226,51
968,-52,183,-192,-504,-481,-561,-208,138,-2
1892,246,448,-9,-377,-334,-492,-169,58,-7
1974,928,247,-110,-393,-234,-347,-180,-47,-135
471,1043,-191,-326,-398,-116,-57,-78,45,-118
-1346,1099,-291,-226,-149,46,99,25,-15,-651
-1857,1254,-84,180,299,368,343,227,-116,-829
-1191,1462,53,378,485,543,524,342,-130,-406
-924,1465,41,348,471,604,522,209,-296,-486
-644,1106,41,273,417,670,675,99,-365,-788
-293,650,135,178,258,553,806,-32,-420,-903
-68,-292,153,114,190,316,526,-17,-264,-796
89,-1444,97,28,125,45,168,8,-29,-418
250,-2381,72,-76,-25,-131,-20,13,97,104
322,-3197,11,-197,-225,-215,-55,23,161,355
745,-3776,-66,-300,-422,-337,-138,-54,244,1006
1168,-4042,-105,-340,-533,-440,-194,-68,502,1571
1150,-3999,-70,-291,-450,-351,-163,-31,549,1191
434,-3960,-60,-128,-171,-119,-6,-72,97,129
-271,-3496,-27,71,91,71,51,-160,-268,-355
-296,-2737,-174,-2,71,58,29,-30,91,210
189,-1869,-103,-22,73,56,83,149,444,238
162,-888,3,86,184,118,184,188,344,-288
-688,-138,-14,151,233,204,225,152,32,-1044
-994,416,66,172,175,174,108,41,-217,-1198
-547,641,115,72,18,-19,-123,-97,-183,-185
-178,475,72,-12,-50,-51,-151,-34,68,1418
397,-119,2,-68,-73,-29,-123,47,282,1940
934,-1141,-101,-154,-158,-85,-127,38,346,846
350,-2126,-149,-105,-124,-29,-34,3,97,-631
-389,-2797,-243,-57,-86,24,33,-9,-131,-252
-514,-3130,-222,-75,-90,-18,-15,-82,-234,479
-836,-3360,111,116,135,122,74,-98,-417,-840
-644,-2985,327,332,347,285,199,-112,-566,-2059
-222,-2337,311,265,254,205,199,-109,-407,-1652
93,-1873,156,82,75,41,104,-11,-17,-361
93,-1494,48,-7,20,-54,-31,39,142,972
-45,-1061,-19,-11,7,-75,-96,-15,70,689
96,-468,-83,-51,-44,-124,-145,-74,0,-88
198,140,-80,-49,-47,-182,-195,-90,9,-312
121,677,20,9,-37,-228,-287,-139,23,246
87,1057,-5,-77,-98,-326,-419,-261,-65,451
902,1027,-181,-301,-241,-510,-613,-464,-198,315
1732,536,-90,-144,-80,-324,-441,-347,-179,197
1472,-607,101,162,135,32,-51,12,59,-122
553,-1923,157,138,66,63,35,163,235,363
-613,-3018,84,45,-103,-10,18,167,222,704
-1335,-3787,-99,-116,-259,6,139,158,103,372
-1150,-4198,-123,-130,-229,76,198,159,23,-304
-584,-4387,1,24,-44,260,293,163,-21,-368
-264,-4207,30,54,93,343,405,209,81,162
-181,-3551,90,62,117,273,379,231,61,-284
146,-2439,166,81,123,166,210,88,-139,-909
400,-1206,90,32,92,35,39,31,-129,-641
-96,-171,37,14,65,-22,-47,40,-49,-275
-280,1099,69,25,55,23,-48,16,-83,-276
-368,2324,36,-6,20,70,-48,-14,-161,-450
-31,3440,-11,-79,-95,-30,-171,-143,-346,-654
150,3961,-18,-171,-255,-188,-318,-203,-333,-281
612,4023,-1,-232,-361,-345,-476,-240,-170,218
1067,3699,90,-134,-287,-263,-269,-145,14,468
1076,2972,92,10,-132,-70,49,-2,55,546
1,1967,-6,91,21,2,114,67,40,372
-751,1053,-158,11,70,22,134,152,140,45
296,587,-129,-4,112,98,213,257,326,61
833,420,16,108,176,126,178,176,272,206
-81,378,-58,27,67,60,137,109,200,256
-1271,445,-183,-116,-51,-16,81,50,123,3
-1099,754,-133,-32,47,73,142,86,38,-267
-295,1575,-36,66,85,78,118,83,31,47
267,2585,33,60,-21,-57,8,29,260,1146
287,3362,16,46,-26,-55,29,41,345,1964
-522,4054,-110,37,58,55,73,-73,-123,1164
-568,4988,21,159,198,162,16,-353,-936,-313
340,5874,178,190,194,115,-118,-394,-1009,-537
440,6059,-55,-88,-48,-51,-196,-190,-457,-241
393,5733,-130,-150,-72,-57,-135,-128,-227,-740
1124,5232,13,-1,5,-42,-65,6,169,-700
1208,4472,65,78,64,9,61,194,403,-254
-182,3477,75,89,151,104,150,169,137,-511
-1197,2517,12,85,169,102,126,167,134,-661
-984,1861,-13,127,163,77,97,229,315,-338
-489,1589,-28,120,119,44,66,206,337,103
-207,1716,-51,40,25,-26,4,168,345,389
-135,2220,-171,-137,-191,-227,-178,83,426,729
2,2745,-314,-226,-325,-375,-371,-23,517,1543
438,3325,-457,-267,-346,-373,-413,-102,450,1857
558,3909,-372,-219,-197,-223,-280,-162,116,372
222,4593,-86,-28,10,-26,-101,-71,-31,-1004
-383,5238,113,132,151,86,44,79,42,-843
-206,5746,-70,-15,34,-19,-33,84,187,485
-140,5681,-143,-132,-73,-67,-116,21,135,372
-203,5360,255,26,13,75,35,51,-16,-713
134,5052,506,206,191,293,400,52,-288,-1409
50,4259,374,201,248,340,467,16,-363,-1439
68,3334,144,123,164,207,253,-50,-358,-842
118,2510,-58,71,88,106,115,-41,-346,-141
261,1891,-20,63,103,76,36,-39,-321,188
46,1278,30,66,181,28,-98,-139,-400,-159
-84,815,16,98,265,24,-74,-115,-265,-327
31,799,-15,89,262,7,-71,-48,-64,84
75,868,-102,4,180,-55,-130,-18,67,638
421,1274,-260,-219,-73,-244,-291,-88,107,795
1310,2013,-335,-504,-552,-599,-587,-270,175,1229
2222,2836,-171,-447,-825,-735,-629,-274,439,2086
2342,3572,66,-134,-690,-415,-218,12,621,2059
494,3775,183,158,-222,171,403,404,523,654
-1167,3861,101,220,106,416,536,400,47,-713
-1557,3732,-200,-71,-53,144,198,100,-262,-550
-1431,3447,-247,-164,-88,41,35,-22,-375,-118
-1053,2829,166,163,243,287,183,128,-308,-106
-606,2036,480,421,459,376,220,165,-299,-830
-476,1333,402,300,360,209,70,36,-357,-1865
-102,624,203,158,261,42,-95,-73,-356,-1679
135,-100,12,70,205,-81,-196,-72,-189,-823
269,-694,-7,-7,131,-188,-291,-104,-154,-485
377,-1029,42,-3,75,-223,-347,-183,-244,-217
165,-1178,63,-6,29,-146,-238,-112,-93,97
-105,-1071,-36,-134,-117,-114,-84,10,186,382
-253,-783,-204,-277,-248,-120,-39,101,429,1000
-829,-602,-242,-254,-223,-14,-53,114,444,1298
-1445,-565,-57,66,176,426,257,226,284,654
-1493,-40,108,361,557,679,379,148,-83,-669
-86,1247,40,177,296,267,-46,-224,-463,-1056
938,1454,-30,53,102,32,-133,-228,-326,-473
840,897,13,126,134,49,23,-121,-221,-373
79,167,-34,138,164,61,34,-112,-288,-674
-297,-766,-67,-39,-72,-106,-117,-128,-203,-462
54,-1910,51,-135,-216,-126,-36,-35,-1,291
306,-3164,140,-53,-110,135,334,109,19,575
66,-4206,36,-51,-72,244,457,79,-137,207
-338,-4999,-71,-110,-77,184,363,40,-212,-267
-69,-5499,68,-36,-42,112,298,42,-189,-84
242,-5579,101,-81,-168,-70,122,6,-75,222
800,-5344,117,-135,-263,-237,-82,-87,-17,391
929,-5011,98,-107,-188,-206,-119,-131,-26,410
225,-4597,35,-89,-43,-64,-7,-7,176,333
-331,-4124,43,-20,143,65,104,52,124,33
-368,-3259,-26,11,137,19,-11,-60,-50,-12
-188,-2366,-74,54,80,-13,-86,-8,92,346
-43,-1726,-86,-2,31,-34,-86,111,283,655
98,-1538,-35,-69,-61,-92,-137,95,239,430
704,-1399,62,-82,-181,-185,-219,-65,21,207
754,-1545,45,-103,-266,-265,-266,-74,92,105
110,-2486,49,-51,-242,-205,-182,45,228,-93
-383,-3732,48,48,-104,-19,11,148,210,-464
-595,-4850,-50,64,54,171,218,290,255,-645
-642,-5510,106,126,146,203,251,262,168,-701
28,-5736,277,170,148,92,118,111,58,-305
531,-5681,217,50,15,-58,-7,14,100,48
521,-5363,19,-141,-193,-236,-136,-67,119,113
383,-4924,-111,-258,-313,-335,-247,-127,142,273
997,-3190,-184,-237,-272,-273,-209,-135,162,821
1303,3032,-190,-90,-122,-119,-97,-103,96,1404
494,9288,-172,11,-5,15,-27,-57,103,1871
-759,10173,-333,-67,-23,49,-8,-28,184,2564
-1620,8803,-366,-26,91,174,131,82,145,1620
-1521,5105,-185,154,264,307,215,101,-122,-560
-1062,1454,23,274,370,368,216,91,-335,-2098
-612,1726,26,288,387,350,161,84,-328,-1772
-313,4597,-55,306,381,335,178,87,-217,-1104
-308,6519,-17,315,305,235,219,79,-98,-1017
-74,6195,207,302,223,83,126,19,-129,-1109
107,3660,242,239,141,-54,-41,-59,-173,-722
352,296,108,30,-44,-225,-192,-124,-85,-148
396,-1386,75,-95,-169,-306,-305,-190,-38,399
466,-425,82,-142,-235,-313,-371,-241,7,738
1148,1780,41,-226,-292,-299,-380,-200,149,862
1329,3265,-41,-267,-308,-255,-367,-123,252,1044
564,3318,-223,-377,-379,-226,-294,-174,59,635
613,2601,-268,-438,-438,-279,-186,-405,-379,173
755,2259,-188,-331,-310,-169,11,-309,-338,1000
-791,2653,-104,-53,83,292,456,20,-309,641
-2577,3505,-61,214,459,644,701,265,-434,-1328
-1519,4532,279,468,560,591,496,219,-516,-1945
-384,4717,333,406,372,316,199,196,-153,-1301
-399,3975,182,199,194,183,127,348,408,-915
-11,2717,62,7,27,34,15,234,444,-317
561,1556,10,-90,-43,-30,-42,124,294,334
469,686,-1,-87,-8,-19,-18,111,218,568
17,-3,61,-40,36,-27,-21,96,204,132
37,-508,56,-55,8,-62,-60,70,148,-392
114,-1109,17,-38,7,-69,-103,54,89,-481
51,-1626,-64,1,24,-91,-175,22,89,-98
-127,-1853,-185,-58,-64,-196,-319,-69,96,603
-264,-1621,-161,-92,-68,-218,-297,-120,94,762
-325,-1013,-202,-3,125,-155,-207,-133,21,247
-304,-246,-119,159,295,-91,-243,-188,-135,-512
-64,642,-48,172,315,-50,-251,-227,-175,-308
-66,1267,-151,41,229,-4,-223,-221,-95,425
191,1541,-231,-24,33,55,-71,-173,56,1377
1143,1545,-102,-2,-262,71,114,-113,151,1612
1249,1087,20,52,-373,85,234,-39,129,441
1238,334,161,54,-403,10,250,70,98,-538
1547,-387,391,-48,-420,-93,224,134,96,-156
723,-1557,382,-7,-181,49,355,286,196,242
-1097,-3086,134,27,6,202,449,420,228,233
-1313,-3968,94,-59,-39,105,288,305,120,281
-894,-4481,-68,-192,-140,-14,117,196,74,-112
-172,-4608,-99,-197,-121,-42,46,147,63,-943
460,-4155,117,-49,17,-15,-31,92,34,-702
204,-3517,46,-32,42,-72,-185,-45,-161,-426
-388,-2623,-211,-139,-51,-247,-390,-231,-302,-174
-318,-1658,-139,-59,60,-182,-283,-230,-266,-26
-98,-759,-32,-25,79,-129,-232,-143,-10,283
-367,206,-148,-104,-14,-132,-340,-98,96,511
-616,1247,-247,-165,-81,-85,-320,-139,-35,339
-712,1877,-228,-167,-106,35,-48,-74,-42,-240
-146,2143,-62,-83,-127,107,279,62,89,-94
530,2231,10,-267,-408,-152,182,49,259,884
1205,1919,-111,-464,-637,-459,-159,-172,135,1371
1490,1261,-6,-358,-573,-432,-226,-289,-52,1577
1432,496,342,58,-115,-25,75,-78,-122,1496
822,-547,383,324,282,324,375,176,29,1452
-1164,-1829,180,472,580,660,682,431,17,-274
-2105,-2376,90,429,588,692,698,508,-89,-2276
-608,-1696,292,320,305,274,211,34,-493,-2297
-205,-1216,172,161,131,110,38,-49,-380,-1146
-710,-997,25,89,113,94,54,72,-74,-994
-671,-207,86,117,150,66,28,97,4,-1070
-324,1139,87,99,146,47,38,25,-101,-853
138,2397,153,90,84,-27,-35,-87,-136,-517
716,3293,135,38,-8,-100,-130,-108,-61,-153
1313,3941,151,71,55,-19,-57,-17,40,113
1614,3969,136,92,84,18,-38,43,159,401
846,3576,36,30,17,-9,-75,43,181,475
-744,2795,-141,-80,-75,-64,-121,-4,134,213
-1428,1594,-254,-110,-48,-64,-104,-29,106,172
-614,457,-255,-101,23,-103,-132,-60,112,206
34,-629,-205,-58,56,-118,-140,-29,205,169
41,-1701,-204,26,31,-160,-226,-60,164,-138
62,-2619,-91,82,-32,-195,-209,-94,140,39
-128,-3479,-64,20,-163,-186,12,21,225,375
-78,-3888,-156,-34,-272,-214,47,-17,117,369
475,-3754,-125,-118,-359,-326,-177,-195,-79,684
326,-3523,0,-189,-406,-319,-221,-187,-83,854
-215,-3257,-38,-183,-280,-185,-160,-187,-251,605
-392,-2943,-181,-114,-46,46,45,-33,-273,106
-675,-2673,-38,162,383,495,501,401,122,-198
-746,-1995,121,331,573,685,657,445,67,-626
-439,-1106,69,192,368,447,374,111,-273,-1002
-131,-699,62,106,230,241,112,-167,-577,-1410
101,-656,99,83,139,61,-82,-322,-595,-1175
129,-1249,146,36,69,-44,-149,-212,-267,-453
-30,-2246,121,26,54,-56,-136,1,73,-251
-31,-3131,98,-1,5,-111,-201,82,257,-145
47,-3837,33,-104,-90,-206,-316,6,213,213
125,-4411,-77,-194,-169,-225,-338,-21,180,913
340,-4793,-158,-195,-177,-146,-268,52,276,1471
376,-4881,-101,-177,-140,-14,-60,161,422,1606
299,-4554,-72,-178,-140,49,41,146,383,1138
506,-3976,-12,-118,-58,91,187,117,230,97
1124,-3184,24,-54,40,98,211,124,167,-894
1695,-1974,239,183,223,158,163,8,-151,-1192
588,-814,171,119,103,34,57,-130,-310,-726
-1023,87,-76,-114,-133,-161,-110,-179,-217,-505
-1179,927,-183,-116,-105,-173,-182,-102,-25,-124
-831,1381,-163,-51,-7,-66,-128,-44,28,151
-418,1356,-94,-48,-18,-48,-144,-83,-20,477
-257,1097,-49,-16,32,21,-120,-113,-130,543
23,536,-14,58,132,59,-140,-198,-289,112
497,-167,106,74,75,-25,-129,-245,-222,85
466,-773,83,-63,-117,-183,-159,-316,-230,231
-179,-1627,-25,-99,-121,-143,-92,-291,-303,113
-176,-2449,-75,-40,-9,53,111,-100,-173,-146
736,-2204,108,26,27,119,199,40,-49,-312
536,-1827,295,166,148,229,339,207,75,-184
-386,-1854,202,182,175,268,365,257,233,146
-611,-1505,34,144,150,214,343,283,388,690
-560,-667,-32,112,151,150,273,266,373,525
-544,332,-40,21,113,108,169,172,203,-384
-434,1478,-18,55,170,99,31,55,32,-960
-238,2661,4,125,240,78,-60,11,18,-821
17,3604,-51,90,151,-15,-137,9,87,-73
315,3966,-166,12,32,-121,-213,-33,64,384
545,3927,-24,51,1,-147,-248,-24,61,587
567,3501,59,28,-144,-182,-243,4,83,419
285,2546,-51,-59,-278,-186,-234,-15,48,179
-66,1503,-68,-45,-229,-127,-167,13,49,-125
-188,628,-185,-133,-233,-172,-144,-58,-49,-267
55,-103,-213,-172,-219,-177,-111,-85,-19,159
340,-826,44,-100,-131,-109,-46,-63,70,621
81,-1308,73,-232,-191,-140,38,-92,128,678
-118,-1379,-77,-336,-237,-167,71,-111,-5,246
244,-1004,-43,-248,-214,-154,-9,-136,-250,34
829,-452,122,-24,-52,62,122,-30,-339,-105
815,102,-57,0,-54,141,173,36,-295,21
144,558,-107,-30,-112,128,183,-9,-369,-78
111,1325,226,143,79,237,293,61,-240,187
-29,2244,218,117,84,175,235,153,64,445
-840,2511,30,42,55,122,182,234,321,169
-1635,2090,3,96,128,168,189,324,497,-657
-722,2150,-16,14,12,23,12,257,518,-511
462,2023,-78,-93,-101,-112,-135,68,202,208
234,1161,-17,4,0,-28,-70,20,14,408
-270,474,33,111,116,58,0,-1,-70,-73
-505,55,104,169,193,115,33,22,-93,-599
-263,-391,155,149,177,121,43,49,-81,-995
152,-612,87,86,87,25,-21,3,-44,-881
264,-584,16,68,18,-85,-126,-41,-5,-523
612,-259,82,30,-63,-178,-266,-109,9,-91
981,319,150,-14,-102,-200,-292,-113,77,260
753,906,77,-1,-15,-71,-136,-48,72,250
-5,1332,-34,1,34,27,35,36,114,462
-557,1968,-153,-79,-47,-25,82,67,236,823
-962,2964,-138,-140,-117,-122,-17,-86,86,275
-1075,3697,-93,-83,-62,-74,-45,-160,-214,-830
-342,3661,11,77,135,156,160,48,-155,-1048
392,3501,102,88,116,115,128,109,69,10
425,3305,11,-8,-3,6,4,135,267,1443
54,2420,-118,-49,-28,-14,-5,141,360,1688
87,1423,-206,-145,-141,-143,-122,-5,240,849
56,485,-225,-197,-205,-207,-180,-81,124,-310
-104,-498,-113,-52,-27,-11,-6,8,40,-838
-578,-1400,82,135,209,249,224,138,-22,-630
-628,-1618,63,13,80,139,102,-30,-238,-115
339,-1037,-173,-336,-344,-274,-311,-384,-328,1072
863,-515,-193,-436,-480,-414,-454,-490,-291,1250
805,-245,-165,-266,-238,-142,-176,-273,-258,-33
930,476,168,165,205,286,208,-66,-453,-1242
843,1493,281,345,351,406,357,93,-284,-554
49,2506,62,239,184,154,132,109,-116,-116
-902,3194,5,299,238,103,60,130,-143,-910
-683,3670,155,388,322,173,40,46,-324,-1588
-44,3840,237,228,111,-10,-138,-121,-366,-1050
286,3856,90,-27,-177,-285,-365,-309,-330,-489
136,3402,-53,-71,-181,-244,-311,-242,-40,-356
-644,2014,140,181,178,207,156,148,309,-378
-1018,711,218,255,286,328,298,340,478,157
-507,45,103,70,95,59,17,119,290,598
408,-303,-45,-129,-54,-220,-289,-208,-11,495
1234,-530,-9,-98,-9,-243,-337,-307,-177,399
740,-960,7,-13,60,-114,-201,-217,-160,723
-172,-1444,-49,-13,102,91,53,30,110,1275
-461,-1637,-57,28,134,281,294,179,204,1094
-283,-1124,-88,-16,-7,192,201,88,40,-286
-135,-448,63,9,-116,84,76,56,-58,-1045
529,337,256,105,-35,86,64,159,106,-320
750,1102,192,70,-3,65,46,241,349,595
-196,1554,-88,-93,-95,-17,-52,139,291,259
-1144,1712,-226,-168,-149,-99,-166,-3,-20,-882
-709,1730,16,8,-1,-84,-165,-16,-109,-1078
-74,1481,153,91,15,-93,-125,0,-1,-154
-162,565,33,7,-47,-58,-63,70,206,1041
-315,-535,-6,-82,-139,-88,-82,44,242,1350
-11,-1388,22,-110,-208,-111,-124,-34,141,874
55,-2364,-56,-117,-177,0,26,0,57,-129
188,-3166,-27,-40,-41,189,296,17,-188,-840
160,-3680,21,-1,21,173,401,39,-159,-1059
161,-3704,22,11,61,113,362,58,-81,-723
206,-3429,-25,-22,80,93,294,27,-187,-306
316,-2790,-31,-62,25,8,123,-166,-469,-319
401,-1810,-100,-99,-94,-163,-120,-338,-521,-146
224,-1026,-20,-94,-127,-210,-171,-209,-185,-115
204,-256,161,35,27,-35,-31,-2,42,-199
-133,624,146,85,127,85,61,72,70,-231
-521,1290,-71,-30,64,65,38,78,55,-54
-285,1752,-185,-106,3,-25,-55,69,140,285
-196,1827,-176,-45,80,-23,-82,0,83,402
-617,1444,-194,30,177,99,30,64,138,496
-433,760,-191,-25,102,99,51,160,319,925
10,215,-254,-181,-78,-6,8,160,419,1087
400,-342,-226,-155,-131,-69,-29,63,278,482
293,-1185,-24,115,97,54,114,61,48,-254
-162,-1869,88,310,249,134,188,57,-184,-982
-64,-2002,106,318,247,9,48,-61,-319,-898
-87,-1842,-31,182,229,-107,-107,-132,-266,-470
-185,-1486,57,138,138,-109,-169,-190,-252,-214
-17,-843,65,54,-3,-43,-113,-149,-178,399
178,-94,-69,-87,-93,-6,-38,-57,-8,786
326,593,-197,-230,-186,-34,-34,27,167,634
613,1484,-171,-232,-171,-29,-24,72,181,312
507,2295,-31,-72,-35,89,132,92,27,83
293,2833,49,-69,-141,-11,87,-69,-130,-15
1034,3028,73,-250,-427,-336,-280,-335,-173,281
1677,2831,273,-205,-383,-356,-342,-344,-76,775
541,1806,305,-57,-116,-104,-95,-53,110,1212
-1169,332,171,20,59,89,105,159,186,1217
-1436,-812,-82,-84,23,42,111,96,6,312
-1040,-1885,-172,-61,101,64,151,64,-21,-819
-559,-2630,62,163,318,171,175,134,77,-1178
-325,-2977,124,244,401,146,112,142,78,-860
-283,-3078,50,205,365,92,43,102,30,-816
-406,-2819,25,134,242,3,-72,0,-106,-966
-368,-2335,17,131,132,-24,-123,-27,-136,-846
-298,-1502,98,139,36,-80,-190,-18,-53,-465
-39,-525,172,170,-41,-171,-300,-39,-18,-249
261,461,213,242,-38,-169,-340,-61,-10,-141
328,1433,152,198,-24,-71,-253,-31,67,-18
495,2213,25,99,45,40,-133,7,135,115
644,2548,-210,-21,22,89,-44,10,222,358
418,2361,-455,-219,-159,36,-1,-34,226,640
-159,1812,-558,-349,-240,-20,-15,-60,188,794
-211,867,-259,-310,-210,-52,-29,-68,141,762
-43,-281,1,-250,-214,47,226,13,13,256
-149,-1321,26,-221,-197,160,494,116,-94,-310
6,-2226,-52,-217,-216,95,450,158,-71,-324
-104,-3135,-122,-274,-313,-84,231,167,62,180
-250,-3828,-29,-192,-225,-94,161,136,58,240
-157,-4045,229,73,48,86,278,145,-26,-147
-178,-4016,274,181,199,200,343,169,-16,-485
-33,-3586,114,51,89,83,172,57,-23,-367
83,-2974,49,-54,38,16,73,40,58,-51
40,-2365,-15,-97,36,21,61,90,188,182
-5,-1492,-52,-96,-14,-22,-46,25,162,289
-70,-501,-140,-141,-85,-105,-152,-66,130,524
3,271,-155,-121,-46,-81,-126,-48,125,768
351,553,-14,11,51,-5,-47,1,60,484
899,492,147,126,35,-16,-52,-12,-19,133
816,74,223,206,66,-22,-30,-32,-78,-221
377,-659,113,130,19,-88,-71,-87,-118,-256
61,-1583,-7,-13,-43,-86,-50,-77,-100,157
377,-2325,93,17,52,36,80,66,171,1409
90,-2981,85,54,112,108,143,162,317,2061
-1042,-3633,-148,-83,-4,-1,35,19,-12,754
-1275,-3841,-262,-163,-87,-114,-79,-145,-285,-443
-802,-3399,-141,-85,-56,-121,-128,-173,-373,-662
-336,-2693,-90,-89,-82,-179,-208,-124,-220,-263
-45,-1963,33,-2,9,-95,-129,1,-20,-266
62,-1343,301,274,283,164,100,143,-10,-911
401,-380,282,203,188,57,-31,8,-130,-1086
699,781,102,25,-18,-117,-219,-122,-155,-1061
721,1735,66,53,40,-37,-127,-38,-72,-831
-242,2017,7,101,166,128,90,135,71,-597
-825,1851,-50,83,171,185,176,183,127,-359
-515,1591,11,98,152,162,145,108,74,-145
-35,1143,-9,0,29,36,45,-16,-2,90
358,322,-78,-115,-94,-79,-63,-67,44,361
567,-595,-38,-94,-76,-87,-107,-56,18,278
993,-1348,58,14,18,-16,-54,-13,-45,187
848,-1760,73,53,45,-75,-89,-55,-60,209
95,-2094,-68,-63,-50,-235,-198,-228,-242,215
67,-2137,-173,-154,-108,-338,-329,-434,-518,188
524,-1765,-166,-102,-5,-256,-301,-399,-383,303
451,-1463,-66,13,136,-3,-44,-124,57,418
-215,-1262,18,64,149,160,189,184,470,660
-825,-686,-140,-136,-103,23,120,212,559,688
-600,282,-196,-166,-196,0,82,120,244,309
-549,1151,-19,41,-71,150,221,223,106,203
-768,1796,196,273,115,312,350,307,62,142
-509,2306,288,283,147,347,326,215,-127,-257
-532,2350,69,57,36,217,176,140,-92,-347
-346,1963,-85,-50,10,158,134,266,202,-326
61,1155,-4,-6,45,130,86,221,217,-134
593,279,131,-13,-15,2,-62,117,176,-71
780,-413,174,-44,-64,-101,-139,53,93,-441
90,-1290,24,-92,-96,-121,-124,-66,-124,-761
-724,-2225,-73,-80,-48,-32,-4,18,-70,-817
-397,-2604,-45,-39,-13,-22,11,55,-3,-468
97,-2474,-87,-32,-53,-113,-121,2,-8,4
122,-2134,-70,29,-21,-75,-150,-8,-8,4
200,-1514,48,103,16,-56,-192,-49,-56,-212
573,-551,168,123,9,-76,-195,-98,-52,-195
748,611,115,16,-82,-94,-192,-133,18,402
346,1887,-65,-201,-279,-252,-425,-290,-15,841
-36,2906,-181,-320,-368,-324,-548,-340,-13,666
-86,3554,-134,-263,-280,-218,-411,-238,36,243
-251,3438,15,-8,42,119,36,-20,-4,-242
-712,2857,150,287,388,386,425,195,26,-46
-803,2298,25,313,428,281,326,199,87,404
-478,1560,-180,207,367,95,101,98,128,474
-227,776,-137,190,338,51,-1,-41,35,-67
348,140,131,237,344,75,-21,-166,-233,-486
737,-671,256,238,355,164,79,-136,-331,-277
517,-1428,139,78,200,174,109,-64,-263,-174
328,-1687,-56,-135,-119,7,66,-54,-119,-109
113,-1674,-82,-106,-242,-61,133,25,30,42
-405,-1603,32,79,-136,73,279,184,95,-18
-438,-938,121,232,-73,104,246,170,59,-43
-170,-7,193,305,-12,31,48,-11,-102,54
19,935,63,69,-109,-85,-88,-111,-137,121
344,2074,34,-188,-267,-230,-223,-187,-90,305
431,3019,29,-303,-318,-309,-290,-114,150,588
-205,3354,-211,-305,-235,-262,-253,34,362,536
-769,3185,-349,-209,-104,-168,-208,60,223,134
-430,2942,-264,-98,-21,-118,-244,-7,-32,-38
193,2392,-124,65,132,-11,-181,-136,-310,-522
186,1285,11,247,267,140,135,-116,-329,-728
410,138,0,174,142,71,147,-66,-32,-96
747,-901,156,103,82,74,115,16,171,575
574,-1748,339,119,123,274,349,179,192,518
-169,-2289,253,60,1,195,292,108,49,466
-484,-2289,0,-122,-254,-15,78,-22,-57,468
338,-1865,-210,-397,-442,-169,-43,-123,-143,636
571,-1457,-246,-506,-436,-204,-29,-51,24,554
106,-1100,-217,-346,-227,-57,100,127,135,-127
141,-626,-59,-94,47,136,233,170,-27,-709
615,493,-12,-105,23,39,87,47,-10,111
140,1522,-53,-158,-43,-81,-81,-19,69,227
-724,1787,95,67,179,143,87,169,174,-459
-521,1998,194,217,276,211,96,48,-130,-1235
-144,2093,82,125,93,14,-92,-101,-268,-829
-551,1637,-81,69,-20,-72,-152,-37,-142,-442
-822,489,-18,243,180,99,26,122,65,-396
-796,-662,168,278,215,86,8,118,118,-287
-482,-1339,146,67,-3,-138,-207,-77,9,-14
-90,-1860,102,-87,-129,-232,-284,-169,-92,3
297,-2346,90,-72,-73,-131,-180,-148,-173,-206
441,-2759,50,-44,-1,57,28,-87,-183,-294
814,-2893,46,-35,32,170,161,-71,-207,129
1353,-2621,-27,-122,-91,44,114,-122,-184,938
1269,-1921,-286,-368,-384,-249,-50,-173,-87,1396
361,-1299,-338,-480,-553,-465,-304,-286,-35,1224
-505,-1061,-180,-271,-343,-304,-322,-305,-121,302
-129,-475,-29,3,2,62,-28,-201,-292,-381
288,290,173,281,344,446,410,185,146,-462
-378,798,173,329,391,480,476,377,368,-447
-1133,770,112,270,307,341,351,272,153,-439
-1214,481,59,177,208,198,227,191,117,-177
-880,-98,49,144,177,161,177,202,139,-333
-607,-1109,43,183,180,141,142,190,67,-976
-196,-2132,90,234,181,112,103,139,23,-992
144,-2913,130,186,121,7,-2,59,50,-399
278,-3551,92,95,35,-119,-106,17,91,-68
218,-4117,27,36,-15,-157,-137,43,120,26
69,-4406,-18,9,-1,-129,-94,102,166,121
-92,-4285,-80,-45,-37,-161,-134,81,195,215
-92,-3877,-97,-67,-78,-232,-261,-43,198,307
107,-3184,-195,-127,-137,-283,-356,-104,275,476
26,-2404,-203,-168,-187,-272,-428,-183,61,158
169,-1472,-140,-107,-112,-119,-306,-280,-228,-94
454,-412,-95,-21,-13,74,-14,-215,-263,249
255,271,-45,66,93,237,263,79,58,661
-145,589,-181,-27,22,155,212,149,222,825
-311,457,-193,-27,39,35,41,-34,-44,420
-7,208,43,124,159,68,20,-185,-302,163
-45,-497,46,113,195,149,185,-101,-171,-90
-301,-1425,34,138,221,175,329,-54,-94,-516
-172,-2059,115,34,54,48,200,-62,-94,-720
160,-2602,178,-22,-65,-2,86,14,-44,-591
253,-2942,230,19,-85,-13,35,13,-91,-292
137,-3057,208,55,-109,-86,-64,-56,-143,-315
407,-2844,175,93,-82,-135,-117,-84,-122,-436
838,-2427,165,135,51,-66,-55,-14,-21,-319
984,-1718,152,135,125,-1,-1,53,93,197
531,-711,92,101,95,-23,-67,27,159,491
14,108,27,24,21,-20,-70,46,245,314
-572,1178,-50,-79,-133,20,46,75,174,-262
-719,2461,-114,-40,-157,85,129,64,-13,-571
-413,3490,-106,-74,-187,16,14,-33,-71,121
-206,3935,-237,-169,-172,-34,-18,-6,83,971
-357,3883,-397,-193,-120,-9,14,50,73,727
-123,3642,-219,-120,-32,-24,-34,-1,-178,-161
364,3050,80,37,104,16,42,67,-244,-655
537,2191,98,89,124,78,163,142,-119,-355
324,1221,28,68,90,96,163,82,-128,-144
276,563,28,12,12,57,119,-8,-201,-241
53,212,-3,-71,-99,-42,21,-60,-168,-88
-436,0,-14,-109,-177,-139,-101,-69,-4,-10
-479,-71,-37,-104,-192,-148,-124,6,194,309
-407,106,-87,-138,-180,-150,-153,-18,211,732
-348,513,-46,-98,-95,-74,-120,-69,89,394
-232,1053,71,18,42,48,-21,-57,-91,-478
-227,1582,186,174,211,200,102,55,-181,-780
-225,2388,110,107,135,101,-31,-46,-258,-303
413,3341,113,-1,-38,-96,-240,-234,-267,45
693,3659,160,18,-18,-67,-162,-112,-48,96
123,3109,123,88,111,73,8,86,126,49
-253,2412,31,37,80,42,-23,87,150,15
-283,1552,-56,-36,3,-8,-71,33,91,-28
-113,253,-37,-15,27,44,37,86,154,-96
217,-910,-9,14,56,87,128,129,202,-63
229,-1923,-40,-26,7,48,126,118,212,-19
230,-2757,-31,-47,-38,-24,61,72,134,-88
54,-3545,-15,-4,-6,-21,51,43,58,156
34,-3756,-24,-33,-26,-63,-24,-68,-48,674
246,-3505,-34,-99,-52,-92,-98,-151,-103,926
197,-3158,-120,-186,-66,-88,-117,-129,-82,760
82,-2594,-81,-100,-11,-49,-117,-118,-128,348
220,-1883,1,126,85,16,-97,-95,-186,38
469,-988,109,187,115,12,-79,-42,-95,-200
409,54,184,185,100,-14,-100,21,80,-475
-135,775,66,104,63,31,-48,57,98,-643
-255,1221,-19,-19,-15,-5,-8,62,119,-268
187,1431,-94,-117,-159,-164,-118,1,204,330
735,1458,-237,-294,-356,-319,-249,-73,391,1934
193,612,-434,-408,-387,-314,-226,-22,577,2616
-1194,-901,-574,-333,-157,-174,-126,14,498,1251
-1957,-2146,-344,-35,250,118,88,9,51,-1606
-1230,-2674,211,274,573,440,420,94,-326,-2609
-240,-2678,423,269,522,406,431,46,-426,-1603
203,-2700,284,161,331,273,345,69,-285,-694
107,-2560,118,46,42,136,245,67,-189,-623
85,-2099,-7,-6,-150,36,158,70,-136,-606
190,-1380,79,155,-179,-7,106,92,-78,-496
603,-282,287,327,-170,-13,75,75,-7,-206
359,709,273,337,-39,-24,-11,-12,-117,-220
-172,1641,202,294,96,23,-39,-25,-118,-107
-35,2730,165,114,62,18,-55,-24,-48,104
112,3655,58,-62,-17,-36,-138,-63,-42,181
-72,4039,-102,-219,-141,-188,-324,-209,-147,99
195,4130,-271,-407,-360,-390,-507,-389,-281,289
894,3786,-261,-430,-361,-323,-336,-208,-31,909
1353,2847,-151,-329,-248,-173,-47,170,471,1355
1270,1739,-206,-356,-347,-175,23,319,691,1548
728,643,-333,-427,-385,-177,-11,288,770,1736
-547,-545,-176,-93,40,142,166,217,380,862
-1434,-1471,161,294,470,481,418,104,-327,-1011
-1164,-1750,283,372,512,483,448,69,-520,-1790
-720,-1549,137,193,276,264,289,86,-255,-1377
-562,-1141,28,43,94,141,172,80,-81,-694
-495,-541,65,31,29,68,67,28,-111,-432
-294,186,108,73,24,20,-21,-9,-139,-256
-101,944,138,101,60,10,-64,-48,-147,109
12,1856,60,31,28,-56,-128,-121,-210,65
142,2672,-11,24,6,-100,-199,-194,-293,-254
435,3138,-42,37,-30,-158,-324,-271,-341,-308
709,3172,-11,-71,-170,-293,-498,-333,-217,493
869,2951,17,-166,-287,-362,-579,-331,56,1448
803,2120,-60,-210,-295,-296,-455,-244,275,1133
421,852,-43,-106,-123,-21,7,23,387,65
-186,-227,112,163,214,377,516,302,255,-394
-561,-1162,35,154,231,346,491,238,132,-151
-546,-1907,-135,-62,-9,40,196,94,169,71
-45,-2190,-208,-267,-227,-199,-80,-81,28,-6
395,-2044,-153,-251,-172,-149,-69,-61,31,478
-329,-2096,-92,-30,108,147,257,210,167,709
-996,-2061,-34,136,256,246,351,280,83,133
-535,-1146,-133,64,86,-42,26,-31,-341,-932
491,22,43,123,40,-225,-234,-274,-652,-1415
1076,794,300,359,257,-46,-64,-143,-420,-671
928,1519,340,434,385,167,146,66,-5,-110
-501,2055,86,180,190,145,156,119,198,-191
-1280,2318,-111,-21,-3,80,69,94,247,-506
-743,2406,-50,11,-14,135,50,102,173,-525
-157,2229,-24,-6,-38,112,-3,88,154,-274
147,1662,7,6,-44,39,-97,-4,91,63
224,945,9,2,-34,17,-97,-12,115,697
189,136,14,27,0,-18,-38,18,184,807
52,-698,65,96,85,-17,0,45,166,246
-166,-1386,24,162,211,-16,-14,8,12,-506
-217,-1640,-7,190,255,19,76,-17,-173,-936
10,-1467,59,155,183,-3,122,-36,-242,-610
277,-1198,-18,-25,6,-68,44,-77,-192,-45
284,-816,-91,-208,-142,-36,75,-57,-125,399
-84,-276,-94,-167,-105,101,200,25,-76,541
-429,385,-164,-119,-139,46,123,12,-51,455
-297,1371,-161,-168,-277,-117,-12,-52,-63,289
184,2348,-74,-219,-346,-217,-81,-25,144,789
790,2950,20,-215,-330,-187,-58,66,377,1377
605,2679,14,-72,-97,28,113,173,333,745
245,2064,-12,-25,3,117,140,149,166,-560
358,1459,183,6,-46,13,-54,-71,-112,-1013
392,502,180,1,-103,-69,-143,-139,-175,-694
8,-653,22,-93,-158,-130,-164,-57,-36,-377
-240,-1835,-27,-31,-35,-31,-76,52,56,-238
-352,-2780,-29,19,31,-7,-96,13,-62,-261
-389,-3441,105,60,62,-59,-158,-73,-161,-366
28,-3650,180,114,109,-79,-136,-59,-70,-134
227,-3571,124,59,65,-107,-120,-1,126,248
99,-3313,62,3,6,-109,-117,16,230,482
120,-2909,11,8,25,-18,-58,23,228,962
128,-2412,-89,-43,36,148,71,88,199,952
-129,-1646,-246,-114,35,320,251,124,37,-8
-100,-548,-183,-110,24,248,229,10,-161,-767
287,456,-9,-28,29,99,54,-84,-242,-724
382,997,16,19,4,9,-42,-63,-133,-193
-67,984,30,43,36,-8,-55,-54,-114,-254
-427,647,43,50,65,-22,-66,-96,-216,-484
-110,-18,51,32,43,-9,-3,-72,-147,-114
398,-695,15,-38,-26,-66,-25,-79,-93,429
950,-1316,8,-39,-61,-137,-79,-94,-53,662
1238,-2079,132,37,29,2,65,73,108,367
625,-2595,119,32,71,82,123,126,92,-198
-735,-2889,-55,-67,-20,-5,44,60,-25,-446
-1394,-2907,-150,-37,28,68,139,187,140,-135
-776,-2499,-141,78,143,195,272,318,336,331
-233,-1529,-79,46,49,80,123,164,165,367
-202,-262,34,-17,-74,-61,-60,-48,-77,147
-170,854,-27,-86,-108,-99,-146,-107,-80,105
-339,1944,-72,-71,-60,-69,-178,-102,-28,-168
-216,3050,-16,13,10,-31,-173,-59,14,-421
141,3977,41,67,47,-2,-141,10,110,-279
170,4442,-13,11,-15,-59,-175,43,224,187
-114,4463,-27,-14,-102,-185,-280,-21,255,661
-85,4210,-20,-67,-176,-235,-256,-95,173,910
362,3448,-57,-114,-125,-148,-55,-67,147,837
726,2626,-132,-161,-76,-130,-61,-66,69,432
417,1910,-207,-221,-128,-193,-177,-153,-84,109
-282,990,-230,-334,-306,-317,-326,-279,-185,62
-945,23,-194,-322,-280,-175,-192,-103,-21,334
-526,-398,-66,-132,-86,99,155,125,82,394
208,-478,305,260,206,347,448,265,23,133
557,-240,565,544,375,404,483,169,-271,-905
708,416,525,478,295,284,347,15,-449,-1429
161,787,261,247,143,147,162,-39,-438,-1239
-440,916,139,178,144,149,66,-74,-461,-645
-634,1527,98,191,186,152,13,-79,-379,-378
-643,2471,61,101,82,41,-107,-121,-224,-406
-263,3244,23,26,-8,-45,-196,-162,-94,-336
167,3399,-1,49,64,2,-139,-116,60,-116
115,2999,-29,119,184,108,50,-1,212,130
-135,2239,-55,109,208,186,300,108,208,426
-92,1220,-41,70,169,141,313,109,118,338
114,182,-58,2,75,49,140,98,137,-30
330,-622,-34,-89,-89,-58,11,103,293,-118
340,-1265,-26,-140,-233,-144,25,93,472,390
175,-1837,-78,-181,-338,-216,-11,81,559,702
312,-2026,-11,-146,-334,-187,-17,117,510,672
494,-1906,25,-131,-249,-139,-17,99,279,416
181,-1660,-52,-145,-178,-125,-42,89,115,32
-398,-1283,-57,-32,-35,-15,13,124,22,-52
-571,-709,-89,-16,-18,-18,-40,55,-14,389
-468,155,-177,-101,-77,-106,-165,-130,-204,391
293,1411,-108,-87,-93,-151,-229,-271,-327,158
787,2190,-16,15,-8,-20,-75,-149,-218,37
574,2244,11,106,110,99,59,-4,-111,51
213,1869,63,161,165,97,80,42,-36,58
178,1196,129,184,186,106,77,75,61,41
1029,651,53,78,102,13,-4,62,118,282
968,-9,-31,3,4,-112,-117,26,128,315
-367,-836,-164,-96,-98,-190,-200,-72,-91,-392
-924,-1669,-139,-68,-57,-119,-78,-46,-160,-407
-984,-2546,32,91,80,30,52,21,-48,90
-1177,-3068,-35,53,36,21,14,19,107,255
-883,-2915,-35,18,3,84,88,118,255,85
-316,-2365,21,9,0,134,111,63,127,369
-237,-1622,-14,-38,-45,99,70,-23,-31,377
145,-485,-96,-114,-109,-19,15,-62,-115,-17
132,379,-177,-154,-105,-45,61,18,-106,-619
-308,1184,-140,-63,-7,29,109,97,-93,-1013
95,2333,1,84,48,59,58,58,-150,-796
653,3229,189,192,97,87,20,65,-98,-343
666,2799,164,130,105,94,7,82,-6,-152
510,1572,80,56,122,142,50,64,-32,-187
395,1176,50,-6,66,65,15,-73,-105,-36
-150,603,-8,-125,-64,-87,-93,-173,-62,346
-632,-163,-34,-140,-136,-126,-92,-140,-4,934
-552,-843,-14,-104,-164,-113,-32,-49,138,1203
-355,-1286,-23,-138,-203,-179,-83,-73,91,521
-47,-1613,-93,-198,-244,-218,-129,-72,20,-311
146,-1796,-1,-30,-69,-81,-32,-64,-160,-665
210,-1760,68,123,109,37,19,-61,-201,-351
-187,-1669,113,225,280,189,178,140,36,-335
-257,-1155,145,243,315,212,238,220,135,-262
-164,-333,98,169,220,94,106,133,58,-343
-82,461,152,198,222,78,30,71,-34,-370
140,1350,160,189,182,74,-28,31,-60,-220
298,2204,16,45,35,0,-124,-13,8,116
220,2648,-75,-64,-81,-47,-208,-70,85,472
99,2500,-104,-123,-170,-109,-293,-208,-46,500
616,2253,-75,-180,-285,-224,-366,-333,-140,502
1649,1787,-28,-164,-306,-278,-352,-345,-115,867
1793,786,8,-37,-139,-187,-223,-211,-16,866
681,-566,35,118,77,29,42,64,165,912
-991,-1965,53,206,235,264,348,293,347,1070
-1954,-2948,-106,98,151,258,375,304,414,426
-2048,-3343,-344,-100,-21,108,192,49,48,-909
-1232,-3190,-172,14,99,155,218,-35,-273,-1513
-521,-2703,-43,87,154,112,135,-44,-283,-1292
28,-1948,47,128,172,41,16,-75,-259,-828
-35,-1082,118,164,221,83,29,-55,-278,-781
-140,-138,72,104,182,82,33,-75,-259,-718
-123,1012,-39,-30,52,48,21,-40,-101,-284
-89,2339,-81,-144,-92,19,13,34,45,23
138,3534,-37,-110,-142,-6,10,81,101,293
341,4144,13,17,-144,-34,-10,106,203,611
180,4090,-38,106,-182,-95,-40,101,268,478
49,3837,39,175,-168,-158,-135,-8,78,62
126,3288,98,145,-216,-266,-263,-162,-72,-112
496,2572,141,15,-251,-288,-275,-210,-121,-163
1113,1900,242,35,-154,-189,-209,-140,-83,2
1114,1016,189,78,-8,-37,-82,-21,108,357
502,79,118,64,127,138,164,132,332,607
-311,-360,142,-17,90,111,205,110,318,607
-461,-118,22,-133,-55,-66,35,-28,95,192
-429,-1,-120,-160,-113,-181,-92,-133,-121,125
-150,160,-107,-170,-59,-103,-43,-105,-132,56
811,787,21,-145,-37,48,68,19,-19,201
890,1221,36,-93,-7,157,171,183,167,135
-33,1756,-59,-105,11,169,162,207,156,-246
-849,2426,-113,-103,53,183,130,131,-94,-760
-684,3011,-80,-95,26,68,5,16,-208,-651
-352,3037,-103,-144,-62,-42,-99,-28,-166,-166
-308,2594,-109,-122,-53,-13,-46,10,-154,47
-285,1785,-7,-2,79,70,74,84,-133,44
-228,597,48,114,174,146,184,114,-125,-163
13,-362,22,80,135,136,217,31,-146,-254
-30,-1115,-71,-19,34,4,37,-126,-144,-142
-356,-1994,-152,3,63,-19,-29,-34,90,159
-380,-2724,-76,15,97,20,95,86,223,587
-193,-2960,-45,-40,31,-37,70,39,124,610
-182,-3000,-103,-140,-72,-115,-50,-54,65,198
-182,-2784,-70,-173,-112,-98,-91,-109,-22,-112
-2,-2194,43,-55,-12,50,-7,-31,-77,-213
243,-1483,23,65,84,122,32,39,-25,551
364,-707,-81,42,34,57,-22,34,75,1152
126,175,-165,-49,-64,-90,-161,-71,74,498
-1,975,-240,-89,-87,-121,-243,-174,-62,-641
26,1331,-131,87,144,60,-122,-113,-210,-1161
108,1181,-56,190,243,165,7,4,-147,-747
-10,803,-97,75,103,68,-17,54,47,-36
-154,71,87,-47,-63,-76,-135,5,80,396
4,-896,262,-76,-134,-169,-254,-92,-86,237
320,-1843,264,-52,-100,-170,-217,-133,-191,55
163,-2886,100,-109,-94,-149,-93,-115,-168,-252
96,-3645,24,-132,-106,-124,26,-20,-97,-360
118,-4132,65,-78,-73,-95,136,61,38,-137
-27,-4422,72,-23,-27,-87,94,76,148,-14
-106,-4356,28,-20,-30,-118,-43,40,229,91
4,-3939,-26,-14,-35,-82,-82,-5,195,69
191,-3297,51,104,93,153,122,79,112,74
178,-2571,126,149,159,289,280,103,-68,143
6,-1835,71,91,153,286,336,112,-91,243
-16,-922,16,-10,65,169,200,81,-61,231
224,-48,69,-39,-9,64,26,6,-70,172
493,258,99,-47,-38,3,-57,-25,3,255
517,-7,76,-6,52,21,-12,42,153,418
718,-664,37,23,103,-2,-2,43,208,551
1233,-1410,-14,-63,-11,-163,-164,-135,67,328
1203,-2123,-191,-306,-286,-407,-354,-274,-8,196
91,-3090,-393,-475,-429,-442,-314,-217,-14,314
-704,-4378,-220,-219,-168,-90,22,-52,-62,488
-1142,-5285,4,85,75,179,240,90,-107,210
-1394,-5490,-49,105,39,180,263,223,-15,-233
-1038,-5114,-51,136,85,206,280,248,16,-865
-430,-4639,253,334,320,387,397,258,-56,-1439
-36,-3853,276,296,314,377,378,244,-69,-1244
106,-2775,202,211,242,228,207,131,-122,-655
-64,-1646,71,136,173,98,46,-11,-183,-187
-271,-422,-25,29,76,35,-28,-60,-163,300
-453,731,-82,-77,-26,-36,-88,-45,-40,204
-495,1571,-144,-120,-59,-57,-98,-7,109,-198
-205,1939,-74,-68,21,24,-9,26,136,26
145,1953,-32,-94,-4,38,34,55,187,911
3,1522,-141,-189,-154,-102,-62,34,322,1189
-453,683,-183,-151,-225,-188,-107,9,288,452
-181,87,-27,-1,-138,-151,-101,-69,15,-410
417,-248,66,45,-97,-151,-146,-135,-128,-546
578,-622,108,35,-90,-175,-195,-155,-137,-547
495,-967,165,114,13,-118,-143,-145,-111,-529
436,-1091,160,195,167,27,10,-38,-16,-408
300,-825,110,127,164,77,69,69,20,-175
168,-250,-102,-41,42,19,-12,42,-8,5
321,572,-140,-106,-54,-37,-104,-21,-12,117
346,1469,-24,-35,-11,13,-65,13,95,-22
350,2379,5,9,49,87,3,27,84,-95
160,3240,39,17,19,36,-33,-78,-84,-116
208,3875,100,64,33,13,-32,-74,-92,6
197,4167,91,75,42,-21,-45,-29,-27,81
-386,3963,-2,23,14,-96,-121,-42,-29,-155
-678,3463,-160,-76,-57,-140,-172,-59,28,-213
-367,2485,-218,-131,-91,-107,-139,2,208,372
-94,1374,-231,-141,-112,-83,-111,-9,151,986
-66,388,-142,-69,-77,-57,-68,-52,-5,1075
51,-506,-36,-4,-12,-16,-6,13,41,527
637,-1209,239,146,102,71,71,68,14,-131
1019,-1638,345,204,128,99,71,-10,-153,-485
559,-1727,105,156,128,108,70,-88,-275,-641
-539,-1733,-52,75,100,125,146,-71,-317,-558
-1028,-1407,-80,-19,43,79,165,-3,-186,-243
-623,-702,-76,-12,41,56,107,8,-99,-51
-333,99,44,68,90,79,116,38,-24,-243
-271,977,67,83,125,74,87,66,-14,-325
-309,1896,-34,-10,35,-30,-34,37,14,-93
-303,2698,-140,-121,-82,-161,-168,-8,46,557
-157,2974,-175,-122,-112,-223,-229,-46,91,1298
11,2758,-181,-83,-61,-215,-222,-69,140,1129
21,1998,-76,62,148,-42,-70,8,178,191
-11,907,31,207,329,135,34,44,62,-701
22,-161,20,213,324,168,4,-2,-72,-921
71,-907,10,60,155,35,-124,-103,-152,-749
-74,-1561,-17,-90,11,-19,-114,-69,-124,-366
-256,-2204,27,-83,-66,27,41,61,42,-63
22,-2343,165,-7,-158,16,112,116,107,142
691,-2045,180,-15,-291,-80,42,5,28,324
736,-1764,75,-29,-253,-62,27,-58,-9,265
357,-1211,47,-67,-201,-43,48,-57,56,-109
-104,-527,38,-110,-182,-3,108,8,83,-239
-160,156,78,-31,-53,105,193,155,106,-149
124,1080,95,10,-17,67,118,178,111,83
125,1915,10,-37,-88,-82,-55,78,98,241
265,2443,-43,-83,-147,-179,-135,6,161,523
356,2457,-109,-108,-196,-228,-209,-40,218,726
138,1952,-95,-90,-145,-167,-210,-97,40,302
245,1025,30,-14,-37,-48,-118,-120,-143,35
314,-79,96,30,31,39,37,-13,-51,188
176,-1060,104,57,121,129,188,96,35,288
-23,-1833,52,33,144,138,192,80,-26,512
130,-2478,-6,3,59,18,46,-52,-161,250
-95,-3142,59,145,70,-2,3,-35,-145,-398
-367,-3366,110,235,125,44,15,30,-163,-852
-273,-3135,178,262,152,75,36,19,-208,-645
131,-2726,205,228,160,94,51,35,-134,-132
-136,-2084,104,140,146,90,39,27,-133,-320
-421,-1287,10,132,127,64,14,5,-146,-644
-202,-352,-84,53,73,24,-50,2,-110,-325
-13,886,-164,-98,-55,-87,-207,-128,-167,168
-73,2015,-151,-219,-196,-221,-362,-285,-214,434
-240,2349,-110,-248,-188,-186,-302,-226,-139,283
508,2093,-35,-197,-102,-90,-185,-70,35,183
1496,1908,-154,-356,-307,-313,-382,-150,189,630
771,1073,-279,-422,-365,-328,-340,-135,202,772
-1133,-331,-227,-136,16,132,223,46,-79,-256
-1446,-1534,-134,49,243,394,595,302,133,-357
-741,-2217,-20,82,274,320,458,395,461,577
-374,-2665,6,125,302,215,263,343,573,982
-505,-2961,-120,99,269,156,157,200,405,92
-418,-2738,-95,63,229,103,60,23,38,-1086
-22,-2267,-31,98,257,148,78,17,-98,-1324
368,-1487,-109,17,121,95,66,99,2,-700
301,-543,-182,-58,-66,-58,-35,47,59,-149
315,409,-73,16,-99,-169,-137,-130,-45,314
304,1284,226,237,137,-6,-17,-78,-31,357
508,2266,372,355,340,154,149,46,71,372
474,3083,165,136,165,-24,-17,-71,45,550
-42,3217,-29,-69,-8,-186,-205,-235,-76,338
-270,2896,-53,-146,-108,-173,-258,-234,-73,183
-82,2145,44,-71,-111,40,-71,-39,6,-224
84,1103,160,25,-133,207,167,106,13,-489
-191,18,99,-44,-279,94,175,73,-42,-481
-374,-1290,113,-125,-329,-23,90,14,-82,-283
468,-2113,136,-157,-292,-133,-25,-66,-118,264
1202,-2421,236,-19,-126,-106,-17,-75,-170,606
894,-2720,258,97,55,28,120,-51,-256,196
-187,-2746,100,105,165,127,234,5,-237,-407
-1021,-2693,-51,91,211,116,190,100,-31,-664
-794,-2007,-94,150,246,123,106,118,137,-485
-440,-1275,-105,183,222,164,101,90,117,-243
-33,-355,-74,67,76,65,24,20,65,79
537,733,-4,-42,-38,-31,-70,-10,89,350
790,1791,-6,-93,-93,-71,-88,-6,79,573
570,2394,-70,-104,-124,-96,-102,5,30,729
-101,2391,-100,-76,-95,-77,-77,86,94,780
-880,1883,-40,38,49,26,24,142,96,85
-880,1216,78,141,126,85,32,125,37,-460
-500,505,-1,90,35,41,-20,29,-16,-399
-13,-145,-3,0,-48,32,34,-35,-65,-275
322,-604,-22,-76,-100,-31,0,-108,-137,-256
395,-1002,-93,-143,-167,-155,-119,-148,-137,-250
153,-1288,-136,-189,-208,-233,-216,-155,-62,57
-52,-1273,-106,-139,-138,-195,-195,-101,99,273
118,-1077,14,-46,-67,-133,-116,-42,208,310
262,-583,43,-67,-84,-100,-88,19,169,607
-33,33,-50,-116,-77,-21,-36,45,153,615
-536,638,-146,-166,-103,-26,-65,-100,-34,-37
-691,1451,-105,-107,-57,30,-40,-189,-261,-501
-315,2276,0,-8,11,85,40,-131,-214,27
116,2850,31,78,15,31,63,-86,-176,240
525,3107,75,112,29,6,44,-56,-130,62
355,2848,35,121,107,90,99,56,-79,-320
-150,2015,27,161,196,194,220,154,-33,-543
-347,864,61,129,208,221,262,165,23,-317
-78,-174,58,89,172,189,255,129,57,-147
-47,-1004,101,91,140,129,174,63,64,25
-115,-1688,16,24,48,33,53,9,30,91
-120,-2271,-105,-73,-68,-75,-57,-49,-55,-142
37,-2488,-39,6,-4,-26,-23,-22,-51,-264
209,-2304,109,85,77,33,47,34,44,-141
323,-1981,68,2,-15,-63,-28,29,184,412
414,-1435,-95,-69,-81,-121,-79,28,298,574
293,-730,-128,-32,-17,-55,-39,13,192,261
33,62,-19,57,88,55,45,-2,-13,-318
-204,1021,33,113,141,120,97,9,-98,-671
-101,2005,43,72,82,65,28,3,-20,-425
72,2761,7,26,-2,-50,-115,-106,-20,-130
80,2857,-53,-33,-71,-152,-254,-248,-152,-66
344,2536,0,-17,-27,-131,-255,-252,-191,54
734,1809,117,139,167,50,-67,-67,-1,224
414,681,100,185,164,108,27,-8,28,157
-652,-480,22,104,52,87,52,16,38,38
-1206,-1517,101,139,66,81,52,25,-14,-280
-745,-2244,48,117,15,20,-13,-45,-124,-256
-59,-2682,-66,-64,-176,-105,-113,-114,-150,-41
498,-2758,-47,-186,-252,-185,-178,-144,-113,182
695,-2450,-22,-204,-251,-188,-179,-118,-91,335
335,-2027,18,-181,-235,-173,-190,-86,-13,425
28,-1535,70,-97,-104,-78,-132,22,173,391
-108,-984,-5,-108,-63,15,49,130,199,458
-248,-269,-63,-110,-57,79,272,153,80,246
-343,682,-73,-135,-101,50,259,129,110,-267
-350,1668,-99,-165,-156,-65,15,26,89,-627
45,2287,-20,-90,-145,-100,-126,-135,-143,-466
413,2294,16,-94,-151,-134,-169,-169,-63,538
496,1807,-203,-226,-258,-231,-199,-110,240,1283
343,697,-165,-203,-212,-181,-20,57,416,1279
484,-357,4,-64,-54,-116,50,75,250,445
160,-1307,172,151,195,39,67,-7,-143,-691
-215,-2015,98,127,217,30,-15,-158,-510,-1299
258,-2531,-13,4,126,-32,-20,-58,-277,-756
782,-3060,117,106,244,175,254,264,245,-172
442,-3212,207,229,311,342,425,372,289,-404
-461,-2867,144,179,172,208,251,256,133,-607
-1222,-2202,62,119,41,109,136,163,8,-703
-991,-1180,32,80,14,123,160,113,-51,-307
-482,-172,40,71,62,136,159,130,110,405
-174,1021,20,44,61,114,100,97,130,582
-89,2291,2,23,35,76,22,-3,-61,-21
-75,3290,5,18,23,45,-27,-96,-221,-726
-15,3651,-13,13,-8,-1,-60,-148,-226,-722
-35,3526,-26,29,-13,-30,-77,-93,-119,-310
-70,3073,-45,10,-38,-58,-89,-28,2,12
-103,2209,-79,-17,-45,-67,-79,9,47,-29
121,1365,-17,-23,-49,-82,-79,35,14,-141
334,597,-36,-97,-112,-136,-79,79,-3,-51
364,-172,-77,-160,-145,-186,-78,89,88,262
313,-832,-136,-193,-173,-259,-146,-7,93,542
541,-1114,-199,-241,-241,-334,-240,-135,79,752
974,-1010,-211,-260,-291,-343,-291,-191,182,820
914,-779,-152,-153,-191,-167,-148,-70,297,784
-64,-543,-59,9,36,136,138,115,221,326
-871,-169,33,164,237,345,335,140,-36,-241
-307,809,136,251,342,416,377,107,-209,-338
338,2071,100,106,201,232,187,-5,-266,-49
-223,2817,-51,-49,32,36,7,-47,-187,-100
-504,3196,-106,-103,-46,-99,-129,-68,-142,-573
-245,3201,-143,-148,-85,-172,-193,-47,-55,-505
-98,2935,-165,-116,-76,-214,-262,-85,0,-112
100,2282,-37,49,28,-193,-300,-114,-18,134
294,1179,38,145,166,-97,-224,-51,-16,10
179,76,28,147,229,-6,-106,22,44,127
-20,-802,-35,95,158,10,-55,26,65,495
-235,-1494,-70,73,81,0,-24,9,106,687
-158,-2107,-28,172,117,93,195,73,205,696
-36,-2247,-45,185,1,103,261,-10,7,-274
-254,-2106,104,85,-88,91,209,-73,-237,-1144
9,-1657,347,90,-7,69,90,-108,-327,-991
283,-959,319,-31,-59,-62,-75,-138,-222,141
111,-257,33,-225,-197,-249,-256,-168,-98,566
90,664,-49,-121,-174,-316,-370,-248,-104,114
120,1463,-38,40,-46,-161,-293,-203,-109,-347
63,2068,45,132,37,26,-154,-100,-67,-546
76,2411,104,128,13,147,22,-66,-76,-303
208,2288,77,73,27,338,318,94,-9,-68
60,1779,10,118,108,432,453,250,91,39
-114,1052,29,163,31,187,284,156,79,48
37,138,132,178,-74,-25,138,110,108,-47
-7,-838,35,65,-101,-51,105,151,206,40
-331,-1679,-39,-17,-81,-28,92,112,156,-115
-600,-2335,-82,-6,-29,29,76,63,-18,-507
-635,-2681,-17,-8,-3,22,34,17,-105,-370
-4,-2518,-15,-77,2,-21,-7,-40,-57,130
604,-2220,69,-7,106,63,102,35,151,321
448,-1911,101,64,198,186,172,132,227,244
-15,-1409,-33,-91,104,192,213,152,115,21
-219,-751,-58,-216,-80,99,185,111,29,-11
-325,130,-2,-173,-192,-15,4,-60,-173,-125
-282,1051,20,-130,-220,-60,-106,-153,-321,-267
-211,1647,-67,-116,-111,-15,-64,-99,-225,-213
23,1760,-128,-143,-114,-46,-96,-110,-213,-6
298,1586,-36,-144,-175,-122,-131,-157,-269,223
259,988,-2,-104,-116,-81,-61,-109,-276,321
-2,21,-29,-89,-78,-59,-27,-56,-163,478
-313,-849,-66,-118,-103,-105,-42,-10,78,453
-203,-1533,-79,-135,-129,-145,-55,42,264,361
472,-2069,-33,-122,-144,-157,-101,53,376,534
812,-2421,37,-88,-132,-142,-108,121,487,897
404,-2516,-76,-96,-129,-133,-119,70,330,726
-399,-2508,-122,-107,-73,-64,-50,20,65,-386
-324,-2167,-105,-97,-31,-17,-18,11,-76,-653
283,-1279,-25,-82,-58,-53,-29,15,15,26
641,-397,4,-95,-136,-120,-57,1,140,475
259,61,-90,-100,-106,-98,-62,54,278,453
-296,515,-17,80,126,116,95,135,175,-195
-382,1308,162,284,302,257,204,87,-131,-598
-324,1917,178,320,342,278,192,-31,-389,-946
-556,1869,193,302,347,300,178,-40,-446,-1149
-652,1379,128,216,250,228,101,-14,-295,-562
-476,593,3,36,58,48,-21,-79,-216,-76
-191,-451,-33,-24,-5,-5,-39,-70,-153,31
356,-1432,8,20,46,42,-4,-24,-72,15
649,-2358,109,119,152,142,56,30,81,-199
393,-3071,48,25,48,-1,-80,-55,148,-64
-345,-3506,-158,-167,-180,-242,-285,-207,-13,26
-646,-3720,-73,-108,-105,-157,-155,-75,-33,88
-378,-3737,-41,-17,53,1,12,111,21,-23
-279,-3440,-139,-20,85,12,13,75,-50,-310
-8,-2720,-180,-47,74,68,69,47,-102,-257
368,-1788,-15,-4,39,63,116,-44,-194,-163
575,-730,52,-20,-43,31,102,-70,-183,-90
958,590,60,-59,-127,-38,-47,-104,-50,218
716,1533,-46,-35,-153,-88,-134,-53,182,805
-414,1634,-170,-56,-166,-120,-117,101,502,1463
-638,1373,-120,-55,-124,-95,-78,145,558,1337
-380,877,-112,12,48,-13,-13,88,294,134
-202,175,-33,95,181,57,34,-29,-71,-584
-48,-551,1,117,191,55,29,-80,-211,-363
-152,-1329,0,105,223,123,113,37,-115,-1
-103,-1857,78,-3,99,82,62,1,-183,-317
-19,-2178,20,-141,-131,-46,-78,-83,-241,-818
14,-2317,108,-34,-136,-39,-75,-41,-197,-838
267,-2088,158,-10,-189,-84,-101,-6,-22,-277
1212,-1634,117,-74,-196,-110,-119,4,118,273
1970,-894,207,22,-62,-18,-38,95,266,593
1270,-17,160,103,5,20,-13,105,244,478
-604,627,-15,51,6,18,-29,51,94,216
-1652,1373,-37,98,110,141,61,100,4,86
-1109,2489,-70,115,132,170,57,74,-60,-174
-565,3442,-43,57,40,75,-56,-32,-113,-644
-455,3689,-18,26,7,46,-84,-12,-4,-606
-482,3588,1,32,25,16,-118,-30,44,-369
-299,3223,72,162,140,37,-101,-15,64,-164
-291,2489,152,255,224,47,-52,5,11,-216
-214,1774,148,229,246,45,-7,20,38,-61
-102,1095,65,119,163,33,-22,-1,83,112
246,585,-26,-57,-10,-35,-74,-88,66,229
582,239,-89,-176,-145,-71,-71,-112,48,226
926,239,-60,-169,-179,-85,-14,-151,-8,418
1139,595,-17,-209,-286,-180,-12,-143,95,835
825,1049,-44,-254,-356,-258,-46,-76,158,811
-109,1456,-84,-195,-276,-208,-32,39,159,558
-910,1812,-18,-49,-85,-21,72,163,167,341
-868,2361,-43,29,82,135,179,166,48,380
-477,3310,-79,9,87,151,177,40,-167,412
-499,4175,-130,-36,14,97,116,-39,-240,181
-376,4509,-84,12,62,126,134,-5,-147,-58
17,4422,55,91,120,130,111,-26,-215,-434
153,4061,109,114,106,81,55,-83,-277,-868
236,3194,153,118,92,44,31,-12,-85,-961
178,2063,134,82,68,14,0,15,-22,-692
7,984,48,64,52,1,-4,38,-4,-364
-122,-28,28,49,39,-7,-3,36,-1,-69
5,-830,-32,-51,-46,-79,-43,10,72,419
41,-1406,-119,-106,-69,-67,-30,29,162,478
81,-1633,-101,-49,-8,2,21,74,117,144
193,-1549,-46,1,39,28,63,114,66,-170
-101,-1202,-24,16,59,40,71,117,70,-246
-348,-603,-10,34,50,13,33,24,-55,-516
-24,202,54,45,37,-30,-68,-95,-129,-594
278,1009,17,23,13,-29,-87,-85,-34,-219
136,1672,98,39,26,8,-38,-56,-37,-115
-54,2105,107,20,38,44,7,-39,-45,-22
-125,2073,73,21,101,101,52,-28,-64,198
73,1685,97,46,148,109,75,-45,-100,577
196,963,116,69,98,47,38,-56,-62,461
283,-169,125,127,20,-36,-59,-63,-73,-116
318,-1395,123,129,-4,-59,-80,-25,-85,-479
37,-2439,77,76,-34,-102,-112,-37,-122,-299
-344,-3321,-39,-51,-138,-226,-207,-132,-149,-167
-333,-3978,-167,-191,-201,-275,-254,-125,12,-94
-8,-4330,-154,-177,-150,-194,-190,-38,212,353
117,-4294,-107,-125,-80,-115,-75,18,279,658
-67,-4041,-46,-19,27,-28,77,-12,111,102
-300,-3430,-41,47,112,14,83,-80,-99,-553
-78,-2488,-14,27,99,-8,1,-126,-202,-602
236,-1679,-16,101,147,-1,-40,-91,-85,-99
281,-837,82,263,230,97,28,-3,43,148
93,111,71,241,163,121,87,36,65,169
165,907,-68,-1,-30,-2,7,-43,10,235
845,1271,-84,-235,-228,-176,-158,-158,39,492
978,1031,-107,-380,-424,-294,-246,-169,37,680
166,193,-173,-402,-473,-294,-177,-49,61,681
-683,-790,-25,-250,-312,-100,-5,21,-12,643
-859,-1516,-32,-276,-198,113,196,124,81,690
-857,-2219,-107,-288,-97,218,317,245,175,346
-337,-2877,-32,-128,54,286,399,365,242,-224
-156,-3381,83,5,130,280,367,328,235,-835
-274,-3388,70,30,131,180,250,237,260,-655
-446,-3088,-2,65,120,128,191,213,268,-338
-347,-2467,9,138,86,39,85,78,33,-437
230,-1492,186,292,151,44,14,-58,-236,-712
862,-624,290,276,147,29,-31,-109,-228,-399
1171,250,325,180,118,15,-46,-36,-22,154
982,1296,257,97,78,5,-71,-2,53,298
181,1984,86,4,59,25,-34,6,28,-101
-170,2247,-65,-100,19,20,5,17,39,-340
-231,2161,-137,-146,-58,-56,-47,-46,-50,-471
-649,1699,-170,-130,-84,-99,-91,-85,-96,-424
-574,796,-136,-43,-3,-47,-32,-30,-15,-256
-69,-4,-42,29,41,-23,-18,-11,26,-34
122,-622,-153,-86,-59,-101,-91,-19,81,179
209,-1166,-334,-269,-238,-250,-229,-82,140,478
403,-1708,-261,-285,-267,-277,-240,-76,228,826
535,-2202,-83,-140,-92,-81,-22,118,462,1505
219,-2416,-71,-48,81,82,124,251,531,2064
-132,-2078,-296,-104,72,-40,-53,45,214,1503
-383,-1552,-199,129,310,28,-79,-129,-230,-464
6,-864,77,421,600,209,-7,-215,-576,-1743
468,-6,126,403,552,199,-66,-298,-691,-1427
234,934,59,299,438,171,-64,-266,-610,-769
-673,1677,-83,127,269,140,-12,-95,-359,-662
-1377,2221,-152,-23,26,70,15,4,-246,-881
-813,2524,91,82,-70,66,23,19,-247,-847
41,2522,333,187,-158,67,18,49,-136,-319
180,2077,300,65,-253,13,12,44,-41,-23
-134,1150,172,-59,-245,-6,81,42,-80,-145
-118,319,138,-52,-154,-1,136,57,-163,-135
182,-344,117,-34,-119,-35,89,56,-172,32
682,-915,142,-2,-85,-39,115,53,-125,303
867,-1245,124,0,-85,-67,49,62,-43,531
124,-1347,-60,-125,-193,-96,-5,-5,-1,495
-631,-1147,-234,-271,-308,-148,5,-18,120,603
-212,-680,-181,-171,-176,-86,70,91,209,1220
82,-71,-98,1,35,54,162,208,319,1352
34,519,0,145,190,160,227,226,275,288
-53,1291,162,301,293,179,182,148,106,-934
29,2516,120,282,241,76,30,53,92,-1100
-388,3588,-86,-42,59,-95,-240,-2,60,-68
-427,2271,-90,-111,-71,-129,-270,-53,4,-201
-249,1058,-134,-45,-133,-75,-214,-70,-29,-341
-129,-52,-133,22,-65,79,4,-34,-13,-334
-7,-1033,-1,66,6,178,225,-14,0,-252
98,-1762,107,-1,-39,155,280,24,77,-54
167,-2056,10,-145,-118,78,244,64,139,139
202,-2072,-22,-158,-125,-4,218,67,153,359
337,-1751,2,-136,-161,-88,143,70,154,633
535,-1095,26,-136,-196,-155,10,30,135,492
799,-354,-20,-150,-227,-230,-156,-102,-10,363
937,487,-91,-147,-205,-253,-245,-197,-122,634
534,1251,-34,-61,-78,-103,-124,-77,-73,891
-189,1698,-64,-16,9,20,13,41,-1,484
-597,1740,-96,-49,-34,-15,-22,2,36,-242
-831,1616,-101,-95,-99,-110,-129,-131,-71,-725
-588,1344,-68,-44,-60,-91,-152,-206,-235,-621
-509,631,-92,-21,-42,-78,-133,-198,-264,-601
-372,-398,-15,38,60,53,38,4,-104,-448
-100,-1245,18,71,135,129,135,168,83,-204
-222,-1876,24,124,203,193,196,282,146,-217
-448,-2318,-29,119,229,223,237,375,187,-214
-318,-2259,-63,82,206,149,140,287,171,-103
50,-1719,-38,100,174,8,-29,80,62,71
239,-1077,-11,208,214,-28,-118,-43,-38,133
365,-184,36,244,217,-34,-183,-118,-95,379
182,769,135,236,199,13,-148,-105,-99,127
5,1652,56,97,112,76,4,30,-14,-132
33,2855,67,-76,-82,2,-18,12,-31,-102
184,4034,68,-157,-241,-112,-151,-85,-22,410
112,4703,12,-180,-347,-184,-240,-126,63,814
-49,4746,15,-178,-372,-176,-234,-137,1,380
203,4551,19,-180,-302,-131,-157,-186,-172,-315
941,4186,54,-146,-216,-74,16,-135,-186,-487
1149,3002,118,7,-54,4,130,38,60,-21
964,1525,162,168,130,81,154,160,283,633
278,340,128,196,201,138,180,192,254,539
-496,-470,-10,84,106,84,104,71,46,37
-314,-960,-50,-9,-13,-52,-57,-121,-192,-151
3,-1389,44,46,45,-6,-33,-150,-298,37
-244,-1628,39,54,88,72,65,-73,-285,-242
-435,-1622,131,176,241,253,263,142,-3,-334
-364,-1041,129,132,142,154,180,142,180,-262
-294,-299,62,-15,-65,-68,-32,-4,154,-215
-201,363,60,-32,-67,-91,-78,-31,98,-177
312,1275,116,46,45,15,-5,20,41,-355
376,2108,53,12,36,-5,-29,-25,-33,-277
-503,2355,-188,-143,-89,-116,-136,-133,-112,-197
-1189,1932,-232,-135,-47,-61,-80,-49,-38,-136
-683,1331,-52,26,113,117,65,84,38,231
286,615,84,142,221,197,111,81,4,631
398,-314,82,154,222,161,41,-16,-92,342
-262,-1266,12,118,136,61,-58,-140,-228,-498
-346,-2080,35,188,152,22,-78,-144,-185,-573
158,-2754,97,307,185,39,-12,18,18,234
454,-3147,69,233,62,13,54,170,208,485
198,-3076,-8,52,-56,-14,29,116,150,-12
-203,-2688,-40,-83,-111,-137,-155,-118,-143,-641
-185,-2099,-49,-204,-225,-226,-276,-236,-232,-495
-68,-1209,-261,-393,-369,-298,-328,-225,-96,-60
303,-236,-319,-428,-355,-257,-280,-153,40,330
517,709,-101,-264,-207,-74,-83,74,239,479
451,1665,65,-92,-83,57,46,198,281,518
283,2538,147,24,-2,128,94,136,20,264
31,2783,172,126,125,248,201,178,-58,205
-388,2522,127,166,214,311,263,186,-52,216
-573,2214,85,159,206,268,222,55,-244,-171
-331,1640,34,83,119,147,104,-22,-280,-432
19,988,32,12,15,29,0,-29,-110,-527
400,437,4,-75,-101,-66,-18,46,128,-150
495,-109,-70,-159,-181,-142,-27,119,311,208
223,-715,-6,-78,-97,-94,0,104,251,159
-86,-1075,78,61,57,45,90,102,151,7
-107,-877,21,57,57,43,56,49,20,33
-94,-347,-161,-107,-102,-115,-122,-44,19,-112
58,303,-133,-140,-121,-116,-126,-57,31,-256
221,1046,-31,-60,-25,-40,-88,-72,-67,-353
339,1845,-42,-54,7,-13,-82,-38,-9,-181
452,2888,-280,-266,-183,-142,-181,0,204,340
618,3987,-213,-252,-251,-263,-342,-72,256,738
-124,4376,22,8,-86,-197,-319,-122,112,416
-1111,4024,-56,59,-24,-70,-135,-102,-75,-155
-632,3514,-43,84,59,116,141,35,2,302
-241,2723,-27,79,108,210,256,157,116,494
-525,1503,63,151,190,285,318,201,39,-335
-255,672,158,168,118,145,158,-3,-292,-986
434,95,137,87,12,-12,-25,-121,-366,-541
788,-563,142,62,23,-36,-59,-86,-223,105
481,-1250,118,63,30,-33,-42,-52,-106,139
-72,-1671,140,108,75,11,29,-2,-74,-292
-35,-1682,172,134,135,62,78,1,-103,-488
429,-1228,172,118,117,17,-20,-62,-72,-183
179,-489,135,116,136,-48,-85,-124,-24,13
-672,241,-26,48,103,-108,-150,-205,-111,-167
-805,1070,-171,-15,68,-112,-154,-200,-152,-386
-184,1988,-188,-43,83,-49,-27,-36,100,-136
257,2849,-104,-53,51,-14,32,127,357,592
282,3288,-34,-31,7,0,21,239,410,855
81,3232,-15,9,-45,-35,-28,260,322,594
-331,2925,-12,7,-144,-110,-126,147,156,86
-386,2194,11,-8,-136,-46,-97,69,32,-399
-176,1276,-12,-58,-126,27,-51,-24,6,-399
101,453,-3,-69,-100,89,9,-47,58,-265
384,-252,47,-5,-24,125,38,-49,12,-143
271,-841,69,17,9,117,105,-73,-118,-147
-95,-1135,33,-6,-41,45,160,-124,-247,-351
-159,-1055,-16,-44,-96,-99,92,-95,-145,-136
-265,-917,-46,17,3,-133,-1,-42,-5,100
-157,-474,-113,66,100,-75,-66,-19,71,327
31,215,-88,94,145,8,-59,25,103,351
31,903,2,121,141,100,-10,57,60,107
78,1881,85,52,69,92,56,21,-3,-152
618,2920,70,-88,-96,18,90,35,53,281
1090,3594,9,-202,-221,-36,114,10,35,723
802,3604,-6,-186,-253,-107,7,-65,-5,615
-246,3054,-49,-173,-268,-126,-61,-113,-132,-220
-1105,2050,-76,-59,-111,21,74,-39,-199,-903
-933,810,-6,47,39,140,194,85,-39,-201
-346,-289,124,130,131,207,270,165,108,895
-33,-1141,115,115,111,144,204,129,151,1395
25,-1931,-20,-9,-14,-2,67,40,124,1006
253,-2498,-32,-43,-71,-90,-48,-71,-75,-81
378,-2612,-27,-68,-107,-158,-115,-108,-94,-734
290,-2584,-12,-10,-41,-95,-49,-57,-169,-995
0,-2540,73,119,131,86,101,9,-245,-779
-207,-2198,169,225,261,240,247,115,-160,-568
28,-1313,221,220,235,189,181,16,-305,-319
38,-368,188,129,93,45,2,-83,-267,-101
-120,586,2,14,1,-35,-91,-69,-27,-105
-224,1458,-118,-113,-42,-49,-127,34,294,-115
-273,1980,-162,-154,-27,-15,-96,129,344,-231
-186,2089,-142,-87,29,21,-76,114,205,-200
-101,2021,-74,-35,49,7,-103,78,159,1
-257,1493,-50,-44,14,-50,-139,25,85,-129
-135,636,-54,-34,26,-60,-157,-21,-27,-250
-19,-116,-42,0,58,-36,-143,-22,-17,-56
65,-812,-14,16,54,-17,-120,7,48,114
209,-1467,28,14,38,3,-98,26,81,163
305,-1913,0,-46,-31,27,-19,16,81,202
331,-1934,-94,-82,-84,65,126,-4,43,231
224,-1746,-163,-80,-98,47,106,-20,36,277
211,-1282,-170,-134,-185,-69,-45,-97,25,307
498,-395,-116,-212,-282,-216,-175,-174,19,262
576,358,-127,-211,-233,-222,-150,-108,110,339
-78,1002,-217,-221,-184,-164,-89,-43,140,462
131,1987,-133,-132,-89,-116,-108,-67,103,1382
593,2951,-30,-20,47,-50,-84,-66,99,1846
58,2961,46,127,290,203,134,85,78,563
-888,2364,188,269,504,342,213,-3,-351,-1648
-1040,1882,244,266,483,267,144,-73,-504,-2151
-313,1304,50,42,187,66,34,-74,-295,-1294
279,620,-91,-73,-68,-43,-15,-60,-111,-609
283,-82,-55,-34,-160,-64,0,-17,-48,-147
-116,-697,18,-8,-198,-92,14,35,46,234
-470,-1555,80,47,-111,0,123,132,233,258
-460,-2151,118,82,-22,137,261,271,327,-33
-129,-1852,174,80,20,184,281,277,257,-236
104,-1221,200,82,36,89,163,106,52,-125
465,-324,124,-5,-46,-80,-34,-93,-158,79
698,474,56,-73,-53,-133,-105,-106,-112,285
602,1148,44,6,7,-39,-15,69,191,246
-65,1904,79,214,119,127,124,219,362,173
-722,2752,51,232,124,138,94,148,186,-38
-522,3464,-58,114,28,31,-33,3,-50,-170
-224,3680,-238,-12,-45,-96,-179,-129,-168,-182
-138,3438,-133,13,48,-64,-161,-164,-175,-184
-93,2900,-50,5,88,-7,-70,-84,-107,25
85,2120,7,-34,31,-39,-71,-81,-66,267
210,1198,40,-115,-81,-128,-135,-102,49,1032
321,240,-20,-198,-162,-160,-126,-54,171,1455
339,-672,-188,-259,-237,-206,-138,-14,218,1088
743,-1322,-108,-238,-312,-282,-216,-92,37,170
1590,-1474,52,-83,-203,-240,-222,-140,-197,-301
1632,-1481,126,29,-46,-125,-164,-123,-264,-564
88,-1651,101,82,116,20,-30,-6,-179,-548
-1416,-1649,-87,118,265,141,99,141,17,-526
-1595,-1219,-177,205,389,179,98,221,221,-262
-942,-412,-143,249,402,107,-10,189,367,374
-420,644,-153,129,215,-40,-161,-29,182,1004
-471,1487,-188,-41,44,-113,-247,-187,-66,559
-383,1846,-163,-124,-43,-129,-273,-255,-240,-476
-189,1542,28,-5,-53,36,-38,-134,-326,-1271
-4,1072,173,83,-101,255,306,91,-222,-1267
47,237,121,66,-131,267,403,141,-56,-715
55,-878,252,31,-142,180,390,115,17,-315
255,-1897,307,-19,-106,84,317,95,6,-36
409,-2811,255,-33,-26,21,185,81,51,140
226,-3642,112,-62,-9,-7,124,77,110,222
-33,-4120,-100,-212,-128,-111,25,65,218,899
84,-4092,-213,-276,-152,-180,-72,29,251,1140
177,-3746,-206,-253,-97,-185,-121,32,392,980
-100,-3259,-250,-230,-40,-106,-56,27,404,661
-416,-2550,-210,-131,74,17,25,-40,76,-69
-405,-1679,-80,-23,161,124,95,-16,-133,-556
-192,-719,23,95,213,260,224,58,-224,-936
418,466,103,101,76,198,134,27,-272,-907
1205,1554,154,25,-135,24,-51,-88,-236,-314
1334,1973,178,-63,-281,-123,-173,-147,-202,155
436,1662,75,-101,-208,-96,-156,-143,-260,-96
-533,832,42,-47,-14,51,-31,-43,-226,-448
-1065,-310,76,23,67,59,-37,-42,-205,-498
-859,-1379,57,94,87,28,-22,31,-36,-223
-191,-2112,58,167,95,14,-2,87,77,16
113,-2736,142,254,130,19,-16,44,52,181
