77,-878,62,-17,-11,-21,38,66,182,15
85,-1207,61,-17,-5,-22,30,68,170,30
78,-1220,51,-13,2,-22,6,56,129,20
53,-1011,56,-4,14,-18,2,34,118,-5
28,-619,57,7,21,-20,-16,8,81,-29
46,-4,44,-4,7,-24,-39,0,74,17
54,633,35,-10,-4,-30,-49,-5,52,64
38,1372,21,-3,-10,-25,-45,-24,-6,57
-2,2180,13,2,-8,-9,-37,-27,-24,20
-46,2827,22,7,1,4,-30,-23,-29,-8
-50,3070,21,5,-2,9,3,-18,-16,-16
-28,2944,11,-6,-12,-3,29,-17,-8,-20
-19,2547,16,-3,-3,-13,34,-15,7,-19
-4,1821,27,1,24,-5,38,-16,5,-2
0,1002,8,18,44,0,31,-11,-18,19
18,315,23,11,45,1,18,-4,-9,36
38,-264,59,7,39,1,22,13,8,53
45,-747,53,15,36,3,16,12,21,33
53,-977,37,18,19,-14,12,2,15,18
44,-909,32,9,9,-24,1,8,3,24
39,-658,21,5,5,-28,-5,15,39,35
21,-190,6,0,10,-15,-2,-2,37,18
8,427,-7,5,30,0,11,-3,22,2
-15,1066,-6,-2,29,3,14,-20,-11,7
-39,1855,-34,-7,13,6,-8,-37,-32,-17
-60,2606,-73,1,8,15,-36,-51,-62,-74
-53,3094,-2,0,5,16,-38,-59,-63,-86
-36,3135,12,11,-4,11,-17,-47,-41,-81
-36,2867,5,11,-16,14,-9,-26,-25,-75
-42,2302,-10,6,-12,25,-5,-1,-20,-50
-15,1442,0,8,-11,16,-10,3,-6,-18
19,645,21,6,-3,-2,0,-5,-24,-7
12,-58,20,13,3,0,9,-5,-11,1
5,-698,7,21,-7,-3,7,8,-13,8
31,-1210,-11,12,-16,-14,2,14,1,6
36,-1428,-93,8,-19,-3,10,9,-8,9
18,-1400,-94,3,-2,11,15,9,3,13
4,-1225,1,3,2,-6,15,8,6,5
23,-825,18,7,2,-1,12,6,10,12
26,-351,5,-8,8,1,-7,0,-1,34
8,203,2,-11,1,-7,1,-14,-7,21
-17,873,-35,6,4,-6,13,-22,-43,0
-17,1466,-15,5,13,0,16,-26,-50,-14
-12,1711,2,-4,18,22,18,-27,-46,-41
3,1550,9,-8,22,22,19,-23,-52,-30
15,1174,-63,-6,14,16,18,-13,-30,0
29,486,-91,-5,-6,16,2,-1,-6,31
33,-389,12,-6,4,21,-10,2,49,43
27,-1186,50,3,16,22,-15,7,36,27
24,-1868,55,15,22,19,-1,11,26,1
46,-2451,49,4,13,5,1,0,22,1
52,-2801,47,-13,4,-9,-12,-8,1,30
54,-2811,39,-5,-7,-11,-1,-18,12,40
40,-2646,33,-10,-22,-18,-5,-16,0,30
14,-2284,19,-8,-25,-21,-24,-1,45,15
-3,-1708,21,-13,-11,-14,-15,11,76,3
-5,-1081,24,-8,8,3,-14,-2,52,-14
5,-316,29,15,21,20,19,-9,47,-42
-5,495,33,8,22,29,28,-3,14,-56
-34,1103,29,6,24,25,10,-11,-20,-43
-57,1294,27,9,17,7,-3,-21,-60,-50
-63,1136,16,4,7,-3,-15,-18,-53,-40
-53,727,6,7,-2,0,-23,10,-2,-11
-33,-2,15,6,-3,6,16,23,0,0
-18,-799,30,-5,-1,-1,35,6,10,-1
-3,-1487,26,7,1,-10,25,4,21,12
-2,-2057,30,10,9,-15,28,6,9,35
2,-2527,34,1,11,-17,34,7,20,40
-4,-2736,16,11,0,-20,44,14,-5,8
-14,-2661,12,3,3,-11,42,16,0,-11
0,-2429,17,-2,15,3,34,7,8,4
11,-1991,12,9,25,7,10,3,2,8
-3,-1408,-48,5,17,14,-15,-7,-11,9
-14,-798,-67,2,8,20,-35,-17,-41,10
-24,-42,-41,0,5,19,-34,-34,-71,1
-42,711,-2,-10,7,31,-13,-31,-80,-31
-54,1205,5,-7,6,34,30,-33,-81,-27
-56,1258,19,-2,8,17,21,-39,-51,9
-35,1040,9,2,-5,9,3,-31,-24,19
0,539,10,-3,-18,5,-3,-21,0,12
6,-230,-18,-14,-35,-12,-10,-10,-4,2
14,-917,-41,-20,-41,-31,-15,-5,-15,0
25,-1473,-1,-26,-47,-42,-6,22,32,11
3,-1945,9,-14,-42,-41,3,54,69,15
0,-2299,36,8,-37,-17,-6,47,0,11
1,-2320,25,7,-29,-21,0,28,1,0
-15,-2088,-71,8,-21,-25,24,22,41,-3
-19,-1699,-93,9,-5,-13,40,24,66,5
4,-1109,13,5,9,5,43,17,60,0
15,-460,35,2,6,6,24,2,44,0
-5,257,14,2,0,14,-13,-1,47,5
-22,1101,-32,-1,-14,14,-37,11,30,0
-41,1811,-55,-15,-27,-8,-54,25,6,-4
-54,2130,-34,-31,-27,-9,-44,32,35,-11
-47,2061,-23,-35,-32,-2,-18,19,33,7
-18,1771,-2,-19,-22,2,-33,10,0,24
18,1126,-2,-1,-5,-4,-34,7,11,27
34,311,13,5,-8,-8,-19,-3,-15,16
42,-360,23,10,-10,4,20,6,-24,13
49,-906,27,12,-3,-15,24,1,-4,12
34,-1327,8,-4,-5,-27,9,7,29,10
18,-1574,-27,11,-20,-15,8,24,18,26
40,-1509,-8,18,-16,-8,9,16,-14,43
51,-1235,32,14,-9,8,11,-3,4,38
39,-775,20,25,22,15,12,6,74,31
20,-207,-23,35,42,24,5,5,72,33
-18,397,-4,16,15,30,-7,-7,-25,15
-42,1184,-45,14,22,35,-9,6,3,4
-57,1998,-110,20,44,31,-8,23,61,0
-60,2573,-53,-5,25,24,7,0,9,-6
-36,2749,-36,18,48,32,16,-2,75,-12
-17,2609,2,45,76,33,8,7,104,0
2,2214,58,40,69,28,0,9,118,22
26,1495,80,31,58,20,2,12,113,41
25,736,55,24,36,20,11,12,57,61
36,85,34,1,26,8,37,17,39,74
57,-463,44,11,43,10,36,15,107,59
38,-948,51,21,33,5,19,8,58,49
40,-1154,46,7,31,10,31,19,58,50
27,-1113,29,-7,15,5,1,4,25,35
10,-939,12,-24,-17,-4,-18,-12,-74,19
15,-551,0,-26,-29,-6,-23,-9,-89,23
29,-89,0,-18,-23,-20,-11,9,-44,20
48,428,8,-30,-2,-10,-4,-1,-15,-9
30,1086,-26,-31,1,6,-27,-12,-52,-31
4,1683,-30,-24,-2,1,-40,-29,-73,-41
0,1967,-6,-13,4,0,-43,-39,-83,-41
9,1825,-32,-5,6,6,-37,-19,-30,-18
25,1451,-33,-7,7,11,-22,10,12,16
40,745,16,-9,24,4,-22,0,15,16
46,-207,17,-16,12,-3,0,-27,-23,13
42,-1058,1,-13,8,-13,26,-21,-41,7
51,-1815,-39,-17,-13,-22,8,-16,-115,-10
58,-2446,-37,-16,-37,-13,-8,-16,-113,-15
57,-2893,17,-15,-41,-14,-2,-12,-96,-8
36,-3022,22,-25,-33,-22,2,-8,-51,19
11,-2958,23,-22,-31,-19,21,2,-43,19
13,-2704,22,-19,-20,-7,41,8,16,28
0,-2241,7,-18,-9,-2,25,3,45,14
-26,-1751,-8,-29,-25,0,5,-23,-19,-23
-31,-1110,-1,-41,-20,4,-8,-26,-40,-55
-52,-353,7,-25,-8,17,-40,-19,-52,-79
-63,289,3,4,-1,24,-41,-9,-34,-83
-46,522,-23,11,-13,29,-31,-17,-54,-49
-47,364,-12,-1,-26,15,-35,-23,-76,-38
-44,-6,-4,-19,-44,-4,-38,-18,-83,-13
-26,-669,12,-17,-41,-5,-15,-12,-57,-3
-25,-1448,3,-15,-29,-3,-6,-4,-34,-27
4,-2073,15,1,-11,-4,5,22,47,-23
27,-2554,14,12,0,0,19,51,146,-5
40,-2925,-31,7,1,-12,35,59,170,17
48,-3059,0,-4,-18,-41,66,53,138,40
45,-2919,6,-24,-43,-52,61,17,42,26
43,-2610,8,-13,-37,-36,31,19,38,-6
29,-2082,-1,23,0,-17,11,22,77,-24
4,-1428,-3,26,13,4,30,21,70,-50
-14,-750,1,0,-10,10,9,15,-8,-36
-37,61,-27,-24,-40,0,-31,0,-93,3
-50,880,-23,-24,-55,9,-28,-8,-129,-15
-59,1479,-8,-16,-49,23,-26,-7,-123,-45
-58,1648,-3,5,-30,32,-12,8,-64,-51
-43,1484,-50,6,-31,33,-26,19,-44,-46
-36,1062,-114,0,-43,30,-28,31,-24,-34
-21,346,-150,-15,-44,8,-20,36,-21,-9
13,-339,-110,9,4,3,-3,31,76,-5
28,-917,2,25,7,3,-9,10,52,-8
24,-1400,67,1,-21,-6,-6,-6,-52,5
30,-1743,18,-3,-35,-17,2,-2,-100,5
47,-1806,-74,-9,-40,-22,10,-3,-90,0
53,-1636,-112,-8,-43,-32,0,9,-48,28
61,-1294,-98,-4,-33,-31,-14,8,-43,52
65,-735,-14,5,-3,-22,-21,10,7,41
47,-99,77,14,11,-16,-23,19,71,23
22,558,90,0,5,-24,-27,18,49,6
-27,1340,61,-9,-10,-19,-42,-6,-64,-44
-67,2069,38,13,-5,5,-30,-5,-23,-70
-96,2433,42,9,-9,14,-6,11,-15,-86
-76,2378,7,12,-7,25,-10,11,-32,-92
-59,2074,-44,1,-57,21,-26,-22,-121,-83
-49,1477,37,-12,-65,4,-2,-29,-82,-42
-10,716,75,0,-25,10,9,-4,56,24
-21,22,86,16,-11,14,22,5,77,13
-49,-603,52,2,-43,4,21,-5,-22,-6
-40,-1107,31,-4,-36,-4,15,-2,-40,2
-15,-1395,-5,-1,-15,-22,-1,10,29,24
0,-1388,-69,1,-27,-31,-1,29,64,21
-12,-1206,-17,-19,-67,-31,1,8,-34,5
-8,-828,25,-9,-56,-17,0,-22,-56,1
0,-226,39,17,-28,2,2,-42,-47,3
-6,393,34,20,-9,21,10,-50,-88,-29
-11,1154,19,11,-9,31,5,-37,-87,-64
-21,2007,15,4,-3,33,-4,-21,-72,-77
-21,2677,16,6,-4,30,-12,-18,-88,-58
-29,2924,15,7,-8,18,-6,-20,-78,-24
-44,2822,14,4,1,25,-3,-5,-61,-8
-33,2474,-7,11,8,38,13,11,-41,0
6,1793,-54,16,12,46,22,16,-32,6
22,1001,-7,16,7,19,25,9,-45,0
26,325,15,11,6,-5,26,20,-47,21
31,-240,15,12,13,-9,21,21,-3,43
48,-716,31,12,20,-10,17,21,33,50
69,-995,35,9,-5,-32,-2,-5,66,51
59,-802,45,17,3,-33,-39,0,38,52
51,-376,44,39,31,-20,-42,19,89,55
29,131,12,21,15,-12,-41,-1,32,39
6,672,9,0,-6,-7,-40,-13,-41,17
-35,1385,2,-11,-1,-3,-27,-18,-56,-15
-81,2077,-4,0,9,8,-24,-21,-71,-61
-92,2515,-4,15,13,14,-24,-21,-66,-85
-69,2502,-6,17,4,12,-29,-8,-68,-44
-54,2216,-13,-8,-11,5,-37,9,-49,9
-29,1664,-18,-20,-19,-7,-24,8,-8,57
4,820,0,1,-10,-8,11,7,2,54
5,45,18,1,4,-11,43,8,-2,11
7,-594,32,5,9,0,30,13,19,-3
14,-1140,17,12,4,-5,6,0,29,-6
27,-1515,5,14,13,-5,2,-1,14,8
28,-1537,-1,3,28,11,8,2,-31,10
36,-1203,-3,4,25,19,1,3,-29,13
27,-657,4,10,17,19,0,-7,-19,5
-14,-68,5,15,19,16,-26,-4,-21,-19
-44,600,13,16,20,20,-14,-3,3,-33
-41,1403,7,27,18,27,3,-12,-1,-24
-41,2110,-5,19,22,21,-10,-21,-31,-1
-38,2417,-18,0,13,22,-35,-24,-37,4
-36,2308,-21,0,6,25,-50,-27,-25,-4
-47,1991,-9,7,18,33,-38,-28,-23,-17
-39,1344,-2,17,33,30,-27,-20,-46,-15
-19,513,1,21,37,25,-21,-17,-64,-10
3,-236,9,12,31,11,2,-6,-12,2
26,-867,0,10,6,-16,35,16,45,38
59,-1422,-4,-1,-9,-32,25,41,81,53
57,-1800,-4,-8,-2,-25,4,33,111,52
50,-1809,6,-2,-7,-20,5,14,70,40
43,-1644,26,0,-17,-12,31,-3,63,25
50,-1306,9,-9,-24,-11,44,-9,39,23
53,-783,-4,-9,-13,-5,35,-5,30,1
53,-211,-11,-10,-14,-19,-2,-15,21,14
36,483,-43,-23,-16,-18,-31,-25,9,28
4,1235,-134,-23,-15,-18,-22,-29,-9,14
-38,1809,-87,-18,-23,-14,-26,-33,-28,0
-54,1959,-22,-17,-24,-12,-31,-32,-7,-20
-51,1799,-15,-5,-26,-11,-26,-32,-7,-19
-33,1383,0,-4,-19,2,-18,-20,11,-29
-8,626,11,-12,0,8,-8,-11,9,-30
3,-174,17,-2,-1,0,0,-5,14,-5
31,-820,17,6,2,-5,3,2,31,18
50,-1374,-8,0,10,-8,14,7,4,30
53,-1794,-99,1,11,0,5,2,1,27
41,-1947,-85,11,21,2,1,8,15,24
52,-1815,-112,28,8,-3,-9,24,-1,19
54,-1533,-20,28,-3,-11,-13,30,1,18
23,-1028,41,14,0,-12,-3,24,17,3
1,-447,28,-5,0,-9,0,29,33,4
-10,172,-2,-27,-8,-8,-21,37,79,0
-23,943,-7,-9,-6,-25,-42,8,64,-25
-41,1680,1,6,-1,-24,-51,-12,-1,-45
-64,2118,7,3,11,-6,-43,-19,-33,-47
-67,2099,15,0,28,13,-27,-22,-37,-39
-58,1810,15,-10,31,9,-19,-19,-36,-19
-11,1237,10,-11,27,0,-9,-18,-25,40
34,410,2,-6,16,-2,-9,-24,-58,92
39,-386,-49,5,7,-3,-3,-32,-99,92
23,-1097,-36,5,8,-15,18,-33,-85,54
-12,-1690,25,-7,0,-20,31,-21,-63,2
-28,-2143,36,-28,0,-25,40,6,-19,-27
-19,-2286,39,-34,6,-28,49,12,15,-50
-15,-2197,29,-22,12,-6,58,38,132,-40
-36,-1961,32,-13,25,28,55,68,132,-60
-37,-1508,41,-22,35,36,34,40,88,-68
-2,-968,35,-22,31,35,28,10,82,-53
8,-336,36,-12,25,31,26,-6,27,-27
1,433,28,-1,25,21,12,-26,-1,-27
14,1048,14,0,33,25,5,-34,-1,-25
2,1280,21,13,30,36,2,-36,-23,2
-22,1123,12,17,19,29,-3,-20,-16,5
-38,747,5,-1,15,32,0,-2,1,-5
-19,59,13,10,28,22,-12,14,55,2
2,-697,14,13,24,9,25,34,70,0
9,-1322,8,-2,15,6,41,31,45,-9
9,-1822,15,1,19,-6,40,18,57,-22
24,-2213,16,6,19,-11,33,15,40,-17
40,-2369,-26,1,18,-5,22,4,26,-4
38,-2221,-82,-8,20,0,1,-8,3,5
50,-1898,-26,-15,21,-10,-17,-11,12,17
43,-1380,8,-18,19,-3,-17,-5,21,27
23,-700,4,-13,20,16,-9,-1,29,22
0,6,3,0,27,27,-8,7,8,11
-6,838,15,7,24,27,-15,13,9,4
-16,1731,9,11,29,23,-15,5,-12,-4
-42,2383,6,13,30,29,-33,11,-32,-14
-56,2577,4,16,33,34,-18,4,-31,0
-43,2470,-30,9,44,35,9,0,-24,24
-30,2087,-147,4,34,26,1,0,-13,24
-8,1378,-164,5,5,12,-10,5,3,27
8,650,-91,7,-3,7,-6,14,-2,24
22,52,-46,13,5,11,-2,5,0,11
61,-453,50,5,25,4,1,14,19,31
82,-848,75,2,34,2,3,23,21,61
61,-990,70,4,40,1,9,3,13,51
36,-870,68,-7,35,-9,5,4,16,30
31,-603,53,-1,29,-17,17,8,74,-1
21,-141,21,3,16,-3,15,11,21,4
20,407,29,-2,10,-7,2,17,1,17
17,1016,49,23,37,-5,-5,34,40,21
-10,1730,-2,14,26,-3,-16,20,18,6
-30,2421,-10,-4,-6,-3,-45,-18,-45,-28
-39,3001,-13,8,-9,0,-47,-15,-56,-51
-32,3165,25,11,-7,13,-25,-1,-29,-67
-16,2891,30,8,-2,17,0,0,-15,-69
11,2263,31,5,-1,5,11,0,-25,-55
20,1426,46,-10,1,-8,27,-3,-16,-33
20,659,46,-15,7,-3,12,-1,5,-12
26,-13,40,-26,7,-3,15,12,16,31
35,-581,32,-33,2,-12,36,8,46,63
50,-967,22,-19,0,-22,26,9,37,73
49,-1054,25,-22,-16,-27,0,8,14,59
30,-923,18,-22,-17,-19,-2,11,20,29
14,-639,-57,-12,-6,-9,8,15,10,13
3,-146,-15,2,-8,-6,1,5,9,5
-3,386,38,-11,-7,0,7,0,1,2
-14,1019,18,-13,-8,5,28,-5,3,-1
-42,1725,0,-9,-4,15,25,-13,-15,-16
-44,2269,-3,-24,0,9,26,-22,-68,-40
-37,2422,-56,-37,-13,5,23,-29,-97,-48
-42,2171,-37,-11,-9,6,23,-20,-66,-36
-38,1683,7,7,-4,9,20,-14,-37,-19
-21,828,12,16,1,15,18,-13,-21,-14
11,-85,14,14,-6,1,21,4,-27,15
49,-875,19,-1,-2,-4,19,20,-16,35
60,-1558,18,-5,3,-12,-11,30,1,48
53,-2139,29,13,10,-13,-23,31,-7,48
19,-2464,36,11,3,-9,-20,21,-2,23
-11,-2464,30,16,2,-12,-21,11,-2,7
-6,-2284,16,11,14,-9,-10,0,8,19
-34,-1438,-57,-19,13,4,16,14,-1,94
-23,-819,-47,-30,8,3,-9,5,9,65
-16,-34,-56,-32,-3,-13,-41,-8,-4,27
-41,775,-121,-15,-4,-17,-62,-28,-38,-12
-63,1342,-70,-4,2,-8,-67,-35,-61,-48
-59,1477,-23,3,12,1,-52,-18,-14,-64
-38,1343,-11,18,4,4,-42,-1,60,-48
-20,915,1,22,3,-2,-32,8,113,-17
18,215,22,15,6,-9,-14,13,94,0
44,-468,31,13,13,-11,-13,3,28,-7
55,-1035,30,12,14,-16,-19,-4,8,12
70,-1478,19,8,9,-17,-14,9,-11,35
45,-1821,-11,12,7,-12,0,14,6,26
0,-1871,-19,7,12,-14,2,10,49,13
1,-1640,-11,-5,2,-7,34,16,57,3
10,-1256,9,-3,-8,-9,22,-4,19,-12
11,-681,13,2,-5,-8,-11,-14,18,-15
-11,-33,15,9,5,5,-8,-16,-6,-31
-22,690,10,16,1,11,-11,-14,-24,-32
-37,1540,-6,0,-8,7,-3,-4,-29,-35
-60,2313,-18,-4,1,7,-9,0,-26,-30
-65,2721,-38,5,19,15,-3,4,-14,-26
-49,2690,-23,0,14,15,6,10,-1,-21
-45,2407,-13,2,4,9,6,-4,-20,-27
-28,1831,-13,11,4,0,20,-8,-23,-20
-7,1043,25,35,15,-4,7,10,-3,2
19,307,32,29,13,3,3,22,-1,29
20,-329,16,6,3,-4,15,20,17,31
35,-897,10,1,-4,-19,12,14,26,30
40,-1319,15,12,-4,-31,22,9,55,41
25,-1407,21,16,-5,-23,17,0,21,27
30,-1312,16,10,5,-20,5,-1,0,13
37,-1052,8,7,7,-23,13,1,3,22
28,-600,-7,0,-6,-15,5,5,19,44
13,-66,-16,-4,-7,0,14,16,12,47
-5,583,-20,-6,-10,3,5,14,-7,38
-39,1269,-26,-14,-19,7,-23,3,-4,18
-66,1790,-25,-1,0,20,-35,-2,-10,-6
-71,1901,-30,6,1,20,-47,-16,-33,-21
-66,1658,-15,3,4,14,-57,-39,-46,-39
-42,1195,-6,4,-1,5,-50,-45,-45,-17
-28,414,-7,-1,-17,-2,-36,-31,-33,8
-25,-417,-23,-16,-20,-1,-15,-22,-7,18
-31,-1126,-32,-18,-14,3,14,-14,24,40
-7,-1733,-30,-20,-17,-14,28,-5,16,63
22,-2212,-26,-15,-20,-33,40,3,60,61
17,-2452,0,-18,-8,-17,30,8,82,29
14,-2374,-24,-14,-6,1,-2,19,30,-4
11,-2098,-117,-4,4,6,-10,9,-26,-17
5,-1579,-149,1,2,-2,-8,-7,-54,-3
-11,-958,-82,0,0,-1,-18,-16,-54,0
4,-296,22,-9,9,5,-29,-5,-32,4
-3,519,44,-5,11,11,-43,0,-25,0
-15,1321,31,-15,-6,7,-42,-4,-43,-25
-14,1841,8,-10,-25,-6,-42,-11,-52,-25
-2,1907,5,-8,-30,-10,-32,-8,-62,-7
-3,1696,10,-10,-29,0,-15,12,-32,15
0,1177,19,-1,-24,5,-12,25,-22,2
26,375,28,3,-13,2,-9,34,-13,24
45,-374,25,-4,-8,-8,4,44,-13,29
36,-1011,22,-4,-8,-7,25,46,-14,23
26,-1544,12,-4,-10,-12,23,38,-13,8
22,-1934,22,6,0,-18,36,33,-15,4
13,-2009,43,0,4,-10,39,24,-3,-14
17,-1851,37,7,2,-16,12,27,6,-15
18,-1524,48,10,25,-21,14,43,96,-8
28,-946,56,13,44,-13,27,54,168,-10
27,-343,17,3,11,-12,36,17,77,-13
28,335,-67,-8,0,-18,24,5,6,-4
37,1148,-65,-4,-10,-15,-27,-10,-53,-3
21,1856,-3,17,6,-1,-44,-15,-49,-23
-30,2154,-1,0,9,8,-32,-8,-57,-68
-44,2057,1,0,3,10,-13,-9,-64,-85
-47,1733,-2,4,-2,17,-3,6,-42,-58
-49,1096,-82,8,-13,21,3,5,-19,-23
-22,280,-153,11,-21,20,10,7,-10,-14
-1,-450,-66,4,-27,15,25,13,8,-4
9,-1060,24,-1,-22,2,25,3,18,4
27,-1549,42,-19,-12,-15,15,-7,19,13
15,-1838,54,-15,-7,-30,9,-9,15,14
3,-1846,37,-14,-9,-27,20,0,5,22
15,-1687,-42,-17,-8,-3,66,2,0,34
4,-1323,-68,-19,-6,8,80,1,1,24
-10,-779,-2,-24,-9,8,53,-12,-12,3
7,-217,22,-18,4,21,41,-39,-35,1
-5,472,28,-10,10,32,34,-52,-53,-1
-12,1198,-55,-7,-11,21,7,-48,-43,-5
-29,1722,-41,-24,-27,11,-13,-13,7,-19
-41,1807,11,-37,-30,23,-3,-13,18,-24
-6,1581,25,-42,-24,17,-23,-27,-1,32
27,1080,30,-40,-29,-10,-32,-30,-26,89
39,250,30,-21,-15,-21,-17,-32,-46,81
44,-588,37,-11,-1,-10,0,-18,-36,56
42,-1273,31,-28,-18,-13,7,-11,-52,36
42,-1826,29,-24,-18,-7,4,-7,-37,16
36,-2278,-18,-20,-22,0,15,-2,-7,-13
33,-2494,-33,-15,-10,11,35,12,10,-43
16,-2455,54,-12,3,19,61,31,12,-54
8,-2256,67,3,7,19,53,27,47,-40
15,-1835,57,7,4,31,36,2,52,-28
10,-1282,45,6,0,36,42,-2,3,-20
16,-691,54,8,0,29,37,-13,-5,-1
15,36,41,2,4,24,3,-28,-18,10
-24,715,20,-2,18,27,-27,-26,-45,0
-61,1081,10,0,21,36,-25,-33,-66,-13
-61,1019,-22,-2,20,42,11,-34,-17,-11
-37,734,-19,-10,18,42,17,-14,52,13
-33,143,27,-9,2,36,13,10,81,35
-27,-714,18,-5,-10,21,8,35,97,43
-6,-1492,21,0,-14,4,24,33,89,61
0,-2142,14,1,-14,8,33,19,37,52
3,-2678,5,3,7,12,40,13,23,44
28,-3029,5,-2,15,2,25,15,14,53
49,-3077,6,0,1,-14,-12,24,22,52
42,-2915,-14,-3,1,-12,-15,25,5,26
35,-2566,-46,-5,8,-7,-4,24,8,17
-5,-1995,-1,-5,1,-4,1,28,16,2
-48,-1347,12,-11,0,-5,-20,20,8,6
-55,-617,10,-3,5,-4,-38,0,17,18
-52,212,2,10,13,8,-34,-12,-5,18
-52,908,3,7,10,12,-30,-15,-10,-10
-46,1211,7,3,6,21,-34,-23,-34,-28
-37,1128,0,3,13,34,-18,-12,-51,-31
-38,816,7,1,16,19,16,-1,-51,-31
-40,183,16,1,13,-2,21,-11,-54,-16
-30,-603,18,16,10,-9,28,-4,-1,8
-2,-1289,17,15,15,-11,44,6,2,58
4,-1814,12,-3,4,-14,56,6,-4,87
9,-2235,9,4,5,-12,60,0,42,79
20,-2500,11,10,0,-13,60,-3,23,61
21,-2413,22,17,-5,-13,45,-8,17,37
24,-2153,18,13,-8,-13,16,-12,0,30
38,-1694,-2,-8,-17,-12,29,-7,-31,37
51,-1048,-23,-24,-24,-4,37,-2,-44,62
51,-353,-37,-33,-23,-13,29,0,-44,69
23,476,-37,-19,-20,-20,14,-4,-47,43
-8,1322,-32,0,0,-7,-3,-33,-61,0
-25,1957,-19,10,17,7,-25,-70,-65,-24
-38,2166,-8,33,19,11,-57,-75,-60,-48
-18,2094,-20,38,19,21,-55,-44,-1,-48
10,1739,-107,48,15,15,-51,-25,15,-20
31,1081,-88,31,8,1,-70,-31,20,-7
15,449,13,17,-6,-2,-59,-24,36,4
-31,-51,19,5,-12,-19,-17,16,84,13
-35,-433,15,3,-18,-29,5,42,106,9
20,-670,22,5,-31,-29,-13,38,84,3
51,-652,32,20,-20,-21,-21,27,60,3
60,-398,17,11,-4,-18,-1,27,18,27
67,11,19,11,0,-5,3,31,27,49
60,629,25,6,1,5,-8,27,27,39
44,1310,31,6,-5,-1,-16,32,62,21
20,2041,21,18,-8,-5,-37,21,28,17
-6,2892,-6,17,0,-4,-72,12,-16,16
-18,3653,-16,-2,-3,-6,-92,0,-26,4
-41,4078,1,-3,5,-3,-94,-21,-32,-30
-46,4084,4,20,9,3,-78,-16,-20,-30
-33,3827,10,27,16,18,-48,8,-6,-11
-7,3235,-27,17,14,17,-8,3,-21,0
36,2402,-124,19,11,-8,-2,-16,-19,8
47,1629,-139,14,11,-20,-12,-8,-11,12
41,957,-117,8,11,-26,-28,-1,-6,12
39,388,-87,13,2,-25,-24,11,16,40
31,-52,7,12,-9,-30,-15,28,12,47
16,-183,57,6,-3,-17,-4,13,15,42
-1,-65,64,11,-3,-1,0,4,12,11
-19,229,64,9,-8,0,8,6,-9,-23
-23,741,70,12,-6,4,31,8,1,-36
-11,1285,68,19,-5,6,4,7,16,-11
-23,1923,42,12,1,9,-37,-8,-7,-23
-32,2635,38,-4,-1,15,-44,-14,-44,-38
-40,3171,-19,-1,-6,20,-43,-23,-62,-44
-28,3333,-117,11,-12,17,-37,-31,-51,-38
-35,3133,-126,25,-14,7,-16,-40,-40,-26
-29,2677,-20,35,-2,10,23,-32,-25,-10
-16,1888,75,32,2,2,29,-16,-5,23
-8,1008,76,16,0,-11,33,-13,14,60
-14,218,67,-1,-25,-25,28,6,23,65
6,-437,69,8,-33,-26,30,11,25,52
25,-931,63,14,-23,-27,42,0,21,46
25,-1204,51,2,-21,-13,40,-2,-8,27
31,-1239,47,2,3,-16,39,2,5,3
42,-1146,16,0,12,-25,39,14,26,-2
44,-875,-78,5,18,-11,28,9,-29,-25
39,-490,-38,14,26,-6,24,-16,-49,-26
26,-73,46,0,23,-2,13,-25,-64,-31
4,553,53,-2,16,-3,-1,-27,-60,-17
-22,1285,43,1,0,-4,-28,-34,-43,0
-25,1825,33,15,-3,-5,-56,-33,22,13
-17,1924,34,12,5,10,-50,-20,70,12
-5,1649,37,8,10,14,-34,-24,37,1
11,988,38,-3,-2,-9,-25,-27,21,7
15,-3,37,-19,-6,-17,-14,-12,21,46
1,-931,27,-5,5,-4,-3,11,10,45
11,-1613,14,-6,3,-8,2,31,0,34
34,-2071,32,-16,-1,-12,7,44,30,50
52,-2334,49,-2,3,0,19,64,39,47
60,-2272,64,16,17,14,41,64,43,20
73,-2044,53,16,27,15,39,39,67,10
87,-1798,40,3,20,9,35,26,45,-15
59,-1385,35,4,21,7,31,12,46,-35
27,-846,16,-4,16,3,-4,1,22,-39
16,-179,5,-9,14,14,-31,3,-2,-15
-27,649,2,-6,6,22,-48,7,-10,-31
-63,1411,7,3,15,19,-52,-2,-34,-65
-66,1789,8,14,28,19,-42,-7,-34,-75
-53,1726,-29,30,47,25,-36,6,-21,-69
-42,1412,-39,12,37,22,-26,8,-13,-48
-10,728,-1,0,13,8,9,2,-13,-27
16,-185,5,11,-2,-2,30,12,38,5
26,-1037,12,1,-4,1,37,16,71,31
20,-1771,16,-6,8,4,30,3,26,12
19,-2361,16,-3,0,-1,11,-8,13,13
8,-2745,17,5,5,-9,20,-4,5,15
-6,-2823,20,0,10,-7,29,7,5,7
-11,-2695,7,0,19,-6,10,8,7,21
-10,-2396,0,0,22,-1,-8,7,14,33
-10,-1933,-12,-2,12,6,-18,0,20,42
-12,-1437,-79,-9,6,5,-29,-11,27,32
-26,-794,-119,-5,12,4,-18,-26,-17,7
-41,-89,-25,-5,13,12,-19,-34,-52,-15
-56,469,0,-15,15,18,-46,-30,-62,-19
-52,619,-51,-32,14,12,-59,-25,-40,-7
-60,461,-37,-26,-2,8,-54,-29,-31,-3
-65,47,-61,-21,-4,3,-51,-23,-33,-13
-61,-667,-45,-21,-3,0,-22,-3,-22,-26
-44,-1408,8,-22,8,-4,12,6,-13,-11
-17,-1990,31,-13,20,-7,-7,13,-13,1
-7,-2218,20,-21,17,-11,-13,4,-9,14
5,-2387,-77,-22,4,-23,14,0,6,28
15,-2511,-111,-4,1,-23,52,-4,11,32
-6,-2348,-113,0,6,-16,62,1,32,32
10,-2042,-51,-15,0,-14,37,4,-1,33
11,-1508,38,-14,14,-15,-9,-11,-15,26
2,-830,58,-17,13,-18,-18,-5,-7,1
0,-83,45,-10,4,-7,4,-6,-36,-13
-7,789,-16,-6,0,2,7,-7,-39,-35
-9,1675,-40,2,-1,1,12,-9,-33,-43
-18,2306,16,8,-8,5,6,-19,-54,-31
-24,2495,1,3,0,19,9,0,-57,-16
-9,2378,14,12,-4,27,19,5,-46,2
-2,1975,18,5,-13,31,25,8,-28,20
1,1298,-46,-13,-16,16,-5,12,-6,30
10,682,-12,-23,-17,0,-14,10,9,43
22,195,33,-24,-24,-4,-4,14,-5,43
22,-218,21,-24,-25,-20,6,25,0,34
-8,-494,14,-23,-26,-30,8,41,40,17
1,-463,-1,-25,-32,-24,3,52,53,0
16,-211,-52,-19,-34,-36,2,40,32,-23
22,216,-3,-9,-27,-31,-5,30,38,-36
54,830,32,-4,-29,-13,-21,34,11,-12
84,1484,33,0,-41,-19,-43,12,11,26
78,2153,16,-3,-34,-32,-46,9,71,53
45,2914,-37,0,-18,-17,-28,3,43,20
-6,3565,-68,12,2,-1,-43,-24,-22,-41
-57,3827,6,13,22,9,-50,-38,-28,-80
-65,3693,21,12,27,26,-40,-19,-32,-48
-55,3335,11,-3,11,17,-2,7,-10,41
-17,2647,19,-3,0,0,24,12,36,97
23,1807,16,-13,-11,-13,27,3,16,105
52,1059,17,-7,-18,-16,21,16,32,88
39,391,34,10,-2,-5,14,20,21,61
-8,-166,48,26,10,6,5,10,45,25
-40,-527,59,43,11,14,19,33,56,-10
-43,-612,57,37,19,6,12,22,39,-67
-45,-518,40,25,25,5,9,11,32,-87
-12,-259,26,21,0,8,33,14,21,-64
8,171,15,1,-31,3,1,8,22,-14
14,611,4,0,-31,-4,-22,-3,-30,0
7,1188,-5,2,-25,-10,0,-6,-43,0
-2,1796,-26,-3,-19,-3,5,-19,-35,-17
-16,2219,-70,0,-21,4,13,-40,-33,-43
-15,2219,-89,-4,-19,2,-9,-37,-31,-36
-14,1880,-38,-14,-28,-6,-33,-25,-21,-15
-24,1284,19,-15,-23,0,-29,-17,27,19
-17,388,21,0,-21,9,-21,-8,76,28
10,-519,-33,3,-8,18,-13,-14,58,6
31,-1276,-17,12,4,19,-1,-5,22,12
42,-1938,37,4,0,11,16,15,39,9
41,-2474,53,-8,-10,10,37,30,43,2
26,-2716,53,-12,-9,3,58,40,11,3
5,-2697,38,-13,0,1,55,28,40,3
-20,-2524,26,-12,4,5,34,12,28,-7
-35,-2131,15,-11,-5,7,7,1,2,-8
-38,-1584,17,-18,-7,4,0,0,0,7
-38,-1013,-10,-14,-12,5,-6,7,-13,2
-41,-280,-45,-15,-14,4,-20,-1,-24,-10
-46,414,-12,-12,-16,6,-23,3,-33,-9
-49,782,10,-16,-15,17,-16,5,-23,-11
-34,726,11,-29,-8,11,-8,15,-7,-5
-13,407,13,-25,-11,3,1,23,-3,-4
-8,-221,-21,-6,-10,14,26,7,-6,-16
15,-1078,-49,1,0,25,49,-6,-27,-14
36,-1842,2,2,13,18,55,-10,-32,-11
47,-2488,37,-6,20,10,62,0,-18,0
44,-3026,38,-12,8,11,61,13,-42,0
44,-3399,47,-23,6,13,45,19,-28,0
51,-3418,42,-15,3,5,29,31,-7,5
39,-3199,29,5,1,5,6,30,10,3
33,-2800,24,17,4,13,26,24,-14,-1
10,-2192,10,21,-7,7,34,9,-33,-9
-20,-1496,-12,9,-27,2,19,1,-29,-21
-24,-684,-66,0,-30,3,2,4,-27,-1
-33,220,-67,-6,-8,9,15,0,-20,-6
-37,999,-19,-1,-11,11,17,-12,-52,-13
-30,1410,0,-5,-27,9,1,-19,-67,-23
6,1446,-20,-9,-30,-1,6,-24,-19,-17
29,1201,-64,-2,-26,-14,2,-13,2,13
29,612,-5,8,-1,-21,0,-11,-2,50
35,-95,-4,18,9,-13,12,-14,4,56
6,-711,-45,15,14,-11,17,11,49,-15
-31,-1217,-5,6,23,-11,7,55,112,-43
-16,-1603,20,-9,20,-1,14,63,111,-20
2,-1780,35,0,20,14,26,56,84,-36
-20,-1677,32,14,22,16,9,52,64,-59
-32,-1413,7,18,24,6,-3,46,59,-64
-27,-949,0,21,17,7,-4,42,41,-53
-46,-339,10,22,15,18,-1,39,28,-50
-40,296,0,25,18,28,-3,27,15,-45
-21,1086,-19,7,9,12,-3,13,-6,-30
-17,1877,-2,1,1,11,-21,-7,-2,4
-29,2431,-10,2,-2,18,-42,-13,-4,28
-46,2532,-34,-2,9,24,-47,-5,6,10
-60,2310,-33,0,22,29,-12,-3,-13,-23
-56,1848,-38,12,23,17,-14,-2,-30,-38
-42,1089,-29,11,15,13,-26,3,-23,-34
-16,310,14,-5,9,7,-27,3,-18,-8
6,-346,27,-4,6,-1,-20,10,-10,-2
5,-890,22,-10,4,-12,-11,14,-15,-2
8,-1335,33,-9,15,-17,23,26,-5,9
12,-1487,18,7,19,-20,39,31,14,28
11,-1321,-40,2,20,-14,35,23,3,35
24,-1013,-3,-8,11,-21,19,10,-9,25
15,-497,11,-5,3,-33,8,5,-10,9
-1,128,0,4,-3,-30,1,-2,-18,7
-6,845,17,5,-1,-15,0,-9,-11,17
-20,1675,1,1,-8,-4,-4,-16,-28,17
-22,2427,-2,-5,0,6,-12,-9,-31,24
-22,2847,16,4,12,11,-12,-23,-32,18
-22,2856,20,4,18,2,-11,-34,-12,28
-51,2617,-26,-1,-4,-4,-33,-29,-21,51
-52,2048,-121,-6,-4,-14,-33,-26,-22,59
-10,1270,-76,-12,7,-14,-13,-18,-6,60
-3,573,25,1,-4,-8,-3,-9,8,60
4,-2,51,11,3,-17,3,-9,-8,62
21,-493,35,3,-1,-34,-5,-19,-17,66
31,-800,32,2,-5,-46,0,-25,5,74
34,-794,37,8,-3,-45,5,-15,0,83
44,-616,38,8,-5,-38,19,-13,-8,98
24,-262,36,11,12,-27,0,-20,-2,116
-11,272,13,3,14,-18,-31,-19,-15,83
-15,837,-7,-6,-7,-23,-35,-1,-16,41
-3,1544,-2,-5,-7,-9,-40,-4,-26,12
-7,2341,0,-4,0,5,-61,-18,-73,-26
-18,2924,3,0,1,8,-62,-33,-81,-59
-30,3108,-22,14,-4,9,-46,-13,-47,-51
-43,2913,6,17,-19,7,-14,10,60,-22
-50,2461,6,12,-24,7,16,32,119,-5
-20,1702,7,18,-8,16,21,34,99,-7
11,867,24,19,6,13,35,28,45,20
30,94,22,16,0,-4,34,23,33,44
37,-579,15,2,-10,-12,38,12,25,25
37,-1178,13,-4,-9,-14,35,5,6,11
37,-1551,15,12,2,-1,38,2,9,0
34,-1612,25,9,1,3,32,5,9,0
38,-1523,-3,0,2,-10,-2,-4,16,7
56,-1233,18,20,24,-12,-17,-7,74,18
55,-830,40,8,12,-4,-14,-19,12,6
47,-411,-17,2,0,-20,-35,-28,-42,-13
9,147,-67,7,-10,-13,-35,-31,-69,-25
-32,718,-12,0,-8,-1,-32,-27,-74,-30
-26,1038,-13,2,1,6,-57,-31,-55,-21
-7,895,-6,5,-1,-2,-61,-31,-29,-9
17,458,-2,-3,-11,-23,-36,-31,0,0
20,-275,-5,-15,-22,-29,-6,-25,9,-20
3,-1255,-74,-19,-5,-28,22,-6,30,-55
-8,-2191,-27,-14,-8,-18,45,5,22,-45
-14,-2973,-95,-15,-19,-1,48,0,9,-6
-34,-3604,-120,-21,-24,3,29,-6,-7,-13
-43,-4050,-6,-24,-28,-19,3,-4,-17,-1
-14,-4170,22,-23,-33,-25,23,8,-12,18
-1,-4017,25,-8,-39,-15,17,2,-11,11
-4,-3667,24,12,-30,-8,-4,-14,-24,-9
-25,-3135,34,14,-16,0,-15,-32,-26,-39
-30,-2552,34,13,0,2,-6,-16,0,-30
-36,126,0,9,-7,3,9,-24,-6,-8
-28,-91,-19,13,-1,12,23,-33,-27,-21
-30,-620,-3,21,0,-2,31,-43,-64,-10
-4,-1304,10,12,4,-17,29,-43,-42,-12
4,-1881,17,6,6,-22,49,-31,-38,-25
18,-2309,11,5,14,-23,50,-10,-34,-16
37,-2633,13,-1,24,-27,60,3,-5,-6
48,-2780,14,1,22,-18,65,16,8,4
40,-2620,-15,5,13,-8,47,-5,4,11
33,-2272,-65,1,-1,-22,-1,-9,9,29
55,-1753,-9,6,1,-32,-34,-20,6,40
46,-1053,2,7,11,-30,-36,-21,-10,37
21,-301,2,-8,9,-19,-23,1,26,13
-11,600,3,-22,3,-6,-35,3,13,-11
-42,1560,-3,-13,2,-7,-45,-8,-22,-39
-58,2336,-2,-2,1,-4,-49,-13,-4,-46
-37,2693,-2,0,-2,9,-39,-20,-26,-47
-14,2707,-5,-4,-4,23,-12,-28,-40,-36
2,2476,-5,-8,-4,17,9,-18,-39,-22
28,1897,1,-7,-8,-7,2,-8,0,-7
44,1273,14,9,-2,-4,3,-7,47,-10
38,771,-34,12,15,0,-22,-13,38,-18
32,365,-36,21,21,5,-20,-9,37,-12
22,67,27,19,17,-4,2,5,28,4
18,-34,24,2,17,-8,18,23,18,14
47,122,18,-10,16,-5,-3,29,37,33
40,411,22,5,3,8,-8,29,24,38
5,909,34,24,12,15,-11,2,18,9
-6,1520,45,33,18,11,-30,-11,-7,-29
-13,2118,35,25,7,14,-24,-1,-12,-28
-18,2831,16,25,1,30,0,12,4,2
-21,3487,5,8,-1,42,2,0,-12,2
-21,3844,7,-9,-5,33,-7,-5,-37,-11
0,3773,5,-15,-5,0,-17,-12,-38,-16
0,3442,15,-9,-8,-9,-24,-29,-44,-51
7,2787,17,3,-6,5,-16,-25,-64,-77
25,1848,-1,25,5,6,-12,0,-43,-71
35,949,4,11,10,2,-15,14,-24,-50
29,159,21,-1,3,0,-7,15,-14,-29
27,-512,27,0,-5,-4,-4,8,25,-10
49,-1040,24,7,-5,-17,-6,17,30,7
44,-1271,23,8,0,-15,-21,30,27,5
18,-1285,-11,0,-6,0,-28,23,25,-13
12,-1157,8,7,1,11,-16,5,12,-30
28,-801,23,3,-4,21,-14,0,3,-21
16,-371,24,-9,-7,34,-1,4,13,-14
-63,147,22,0,12,60,9,2,-14,-75
-124,769,5,11,17,65,-7,-6,-60,-122
-112,1309,-14,11,13,55,-21,-24,-42,-118
-90,1471,-22,12,11,40,-20,-32,-34,-87
-56,1246,10,4,13,22,-8,-15,-5,-63
-29,758,-10,-2,3,13,1,-5,-7,-47
-19,-62,-65,-1,-5,10,11,9,-16,1
13,-1008,-12,-11,3,6,12,10,4,48
25,-1858,-10,-11,3,-8,-1,8,15,31
36,-2578,-3,0,-10,-31,-8,27,45,-12
47,-3162,19,7,-10,-25,9,44,60,-28
52,-3509,-60,7,0,-12,8,32,21,-35
59,-3534,-126,3,5,-8,13,36,34,-45
54,-3381,-108,11,11,-3,19,48,5,-55
41,-3010,-32,-4,18,-4,6,36,-37,-60
26,-2438,-3,-11,17,-7,-5,19,-65,-48
17,-1817,-13,-10,19,2,-12,-2,-70,-45
-8,-1059,36,0,22,3,-14,-10,-77,-49
-19,-253,2,-2,3,0,-4,-6,-43,-41
6,365,-1,-16,-15,5,7,-11,35,-3
32,574,37,-16,-12,8,11,0,56,11
46,491,43,4,3,5,28,4,71,0
58,147,51,22,10,13,11,12,55,2
41,-509,53,24,23,7,0,14,15,-10
4,-1180,45,26,34,4,14,19,3,-18
-15,-1698,41,23,32,0,34,21,0,-25
2,-2098,40,30,29,-2,30,15,29,-24
13,-2376,33,13,17,-25,26,35,24,0
5,-2229,5,-31,7,-49,16,48,85,15
-2,-1797,-3,-35,-18,-57,2,22,31,7
-24,-1132,-36,-29,-10,-36,6,1,0,-12
-17,-343,-23,-18,-1,-13,0,-16,-60,-11
4,494,13,-18,-13,-13,-7,-33,-60,3
-10,1441,8,-32,-13,-9,-6,-31,-43,8
-36,2342,-7,-8,-13,-9,-3,-21,-34,5
-34,2915,-25,10,0,0,2,-19,-3,4
-32,3050,0,3,0,-1,-7,-3,38,1
-36,2930,7,-9,-2,-1,-4,0,47,-7
-38,2473,8,-11,-2,-3,0,-1,37,1
-4,1778,21,-15,0,-12,26,0,89,18
17,1109,21,-11,0,-22,24,3,85,38
25,553,23,3,-13,-20,8,12,25,55
-2,74,8,-1,-6,-25,9,20,39,64
-15,-302,-11,-11,-3,-24,13,32,35,58
-25,-374,-7,-13,-13,-30,22,42,31,20
-34,-204,9,-5,-12,-27,19,34,39,9
-27,109,-8,6,2,-17,6,36,29,41
-12,602,-77,15,17,-10,4,45,44,52
-18,1127,-18,4,18,-5,-4,36,36,45
-21,1749,22,12,4,1,-6,16,6,26
-29,2459,11,15,5,22,-17,-15,11,13
-50,2994,0,0,-1,25,-31,-15,-7,11
-44,3111,-7,4,2,19,-28,-20,4,0
-43,2855,-12,9,0,11,-30,-19,-30,-21
-43,2345,-6,4,3,16,-20,-7,-51,-24
-29,1478,-15,0,-5,14,-1,-17,-67,-14
-16,491,-76,-6,-10,8,24,5,-24,15
3,-362,-104,-16,-7,4,29,11,15,20
7,-1108,-10,-5,3,-7,17,5,-13,25
9,-1753,7,7,-2,-14,23,9,-14,32
24,-2193,12,4,-8,-23,30,13,8,38
17,-2335,20,-3,-13,-22,43,-6,10,14
7,-2302,11,-2,-19,-19,49,-2,22,3
14,-2049,3,-10,-21,-29,43,7,16,-12
16,-1635,-10,-21,-33,-18,39,13,19,6
2,-1199,-13,-21,-42,-10,36,11,-6,25
-7,-605,-23,-24,-35,-15,14,-14,-34,34
-37,27,-34,2,-9,-13,-25,-35,-47,15
-47,467,-61,16,7,0,-38,-35,-2,24
-27,470,-20,11,14,-4,-30,-41,1,69
-4,186,6,10,7,-5,5,-41,23,87
22,-360,-2,4,2,-4,14,-13,14,79
43,-1173,5,4,-4,-2,-11,-4,-12,56
68,-1935,1,1,1,-13,-18,-17,-16,47
64,-2562,11,-6,2,-27,-10,-12,4,26
43,-3074,19,1,-5,-31,-1,21,84,17
25,-3418,-20,4,-2,-23,16,50,98,18
34,-3433,-109,5,-5,-21,19,41,54,18
56,-3192,-70,10,0,-15,4,9,12,20
67,-2811,-88,3,-5,-30,-10,-11,-1,25
41,-2205,-98,-4,-9,-33,-15,-12,25,30
-2,-1497,5,-3,4,-8,2,-1,3,26
-27,-714,44,-6,12,5,33,1,9,17
-40,224,32,-17,-5,0,31,7,-4,15
-45,1085,13,-25,-11,-10,10,20,21,0
-35,1592,10,-8,0,1,7,1,1,-14
-41,1648,7,6,-1,22,16,-21,-26,-40
-53,1473,10,-1,-5,32,24,-13,-24,-36
-41,990,11,-20,-12,15,21,-12,1,15
-29,322,-19,-17,-18,-6,25,-3,-3,12
-9,-235,-85,-3,-15,0,17,10,18,3
13,-689,-21,3,-30,6,-5,11,-4,-3
6,-1068,10,6,-27,10,0,16,35,10
-11,-1247,33,13,-11,17,7,22,41,15
-26,-1101,40,21,6,12,8,9,5,0
-16,-739,43,23,16,5,10,-6,6,-9
-26,-215,42,20,17,2,29,-15,-10,-26
-66,506,33,31,21,14,32,-17,-11,-45
-71,1228,-10,33,13,15,24,-19,-48,-54
-57,2062,-24,28,5,16,11,-16,-44,-60
-55,2963,12,11,-7,29,8,-23,-38,-59
-64,3679,16,0,-10,35,-1,-35,-35,-60
-50,3963,-14,7,-3,28,3,-17,-9,-45
-27,3852,-116,18,-9,38,0,17,0,-27
-26,3486,-140,4,-6,29,-13,12,-8,-22
-21,2756,-103,-3,2,19,-5,5,-45,-27
1,1949,5,0,-7,16,6,8,-47,-25
18,1240,66,-1,-12,3,17,21,-27,-15
32,598,58,-14,-25,-8,15,22,-25,-1
38,47,56,-7,-31,-16,7,19,-26,-5
42,-283,46,-20,-31,-10,8,23,20,18
39,-313,48,-9,-24,-5,8,32,81,39
34,-209,44,-1,-16,0,0,31,89,28
29,104,40,-7,-20,3,-8,18,82,15
17,572,25,-20,-19,11,-34,26,72,16
13,1074,27,-33,-7,15,-58,28,47,5
4,1704,27,-19,-2,16,-62,3,0,-23
12,2330,-28,-21,-3,15,-70,-10,-11,-34
15,2713,-53,-12,-12,18,-81,-15,-27,-22
0,2674,23,-4,1,23,-62,-20,-22,-22
-6,2354,27,0,5,17,-32,-12,-30,-11
-9,1766,6,7,-6,8,-2,-2,-28,27
19,939,-11,3,-15,8,0,1,-23,59
46,153,16,-2,-15,8,-1,4,-22,58
53,-524,10,-8,-19,-4,1,12,9,57
59,-1073,-3,-28,-26,-21,0,27,52,50
64,-1529,-6,0,-13,-18,-23,23,55,15
71,-1700,-79,19,-13,-7,-23,12,41,-15
81,-1589,-33,9,-1,-5,17,21,9,-31
58,-1365,-57,1,11,-9,40,31,-1,-43
39,-943,28,23,23,4,21,4,-36,-54
24,-433,65,27,25,10,0,-1,-51,-59
8,170,28,2,1,3,7,2,10,-53
-8,874,24,-6,-20,-10,-3,-9,6,-68
-34,1472,42,2,-26,0,-19,-21,-27,-86
-41,1687,40,5,-11,14,-17,-26,-46,-76
-17,1506,27,-2,3,20,-12,-16,-58,-58
7,1086,31,-14,4,11,-15,-5,-49,-46
9,336,32,0,0,4,-4,-6,-33,-26
-3,-565,2,3,0,6,25,13,29,-9
-28,-1365,-59,-7,-9,3,28,36,72,-15
-8,-2042,0,1,-16,-7,-17,22,-1,-25
12,-2588,38,-3,-15,-20,-28,-1,-23,-15
25,-2940,22,-22,-7,-19,-13,-4,-27,-14
33,-2962,19,-17,-8,-8,-10,10,-13,-12
34,-2777,-47,-18,-20,-4,-2,11,14,-8
38,-2410,-109,-15,-14,-11,-6,-1,-2,-17
23,-1848,-18,-7,-4,11,4,-2,7,-13
6,-1255,-10,-16,-5,16,-25,11,21,2
-8,-499,-38,-26,-6,8,-58,21,24,-11
-16,307,-10,-18,15,0,-72,-14,-21,-46
-22,925,0,-17,15,-1,-69,-36,-62,-63
-29,1125,-16,-32,13,3,-56,-28,-42,-51
-40,985,-12,-33,30,6,-44,-15,-45,-36
-24,564,19,-19,44,-7,-43,-28,-65,-24
4,-144,29,-12,28,-7,-43,-22,-60,3
20,-900,39,-15,30,-16,-22,-12,-4,23
10,-1559,20,-21,26,-8,-2,4,33,44
-12,-2105,-1,-30,12,-13,3,9,19,23
-27,-2539,-5,-20,-2,-22,14,13,33,19
-18,-2716,-5,-24,-11,-19,30,8,32,36
-7,-2590,-4,-33,-9,-18,23,-3,45,50
-8,-2345,-4,-20,-4,-11,1,-16,12,35
4,-1860,9,-3,6,0,-4,-12,3,23
12,-1235,-54,-9,20,8,-8,-25,-13,23
2,-579,-65,-13,17,1,-6,-33,-23,21
-22,214,-21,-10,14,-2,-8,-29,-15,-4
-67,1013,-9,-22,9,4,14,-23,-19,-22
-76,1517,-23,-17,1,1,40,-14,-26,-26
-55,1579,-48,-12,1,4,46,-7,-21,-9
-21,1397,-38,-24,-6,12,39,-8,-25,17
-9,897,-25,-39,-11,9,32,-10,-17,52
5,183,35,-6,-5,-11,3,-28,-34,64
11,-489,70,28,-2,-29,-15,-43,-43,49
2,-1095,18,2,-19,1,28,-14,1,46
-25,-1588,-25,-25,-30,0,66,21,62,29
-7,-1865,-30,-34,-24,0,73,27,85,5
39,-1811,31,-10,-19,-13,36,7,85,0
25,-1567,49,7,-5,-11,30,21,69,9
4,-1184,29,11,14,7,37,23,7,4
-5,-574,32,17,16,10,33,16,31,0
-16,95,25,15,7,9,25,24,30,13
-6,854,21,1,-10,3,9,-7,-9,10
-11,1720,7,-12,-12,8,7,-32,-34,7
-18,2466,-64,-18,-6,19,-12,-27,-33,4
0,2817,-29,-22,-2,16,-15,-11,49,45
-1,2755,-11,-17,7,20,-6,14,95,62
-23,2447,-12,0,-9,18,-5,40,69,38
6,1829,-9,19,-12,3,7,47,57,46
32,1044,-44,15,-3,3,7,43,24,49
31,343,-77,19,-5,0,0,35,-14,42
30,-265,-83,23,-3,-1,-23,22,15,34
0,-784,4,19,-4,-17,-32,33,48,39
-4,-1100,20,8,-5,-30,-26,32,47,40
6,-1100,6,10,-11,-30,-28,6,20,41
21,-960,-9,5,-5,-43,-40,-16,25,56
46,-624,17,5,-5,-52,-50,-16,-7,48
40,-137,27,14,2,-33,-52,-9,-12,31
2,361,17,13,9,0,-42,-12,-20,38
-44,1023,2,23,0,15,-12,-7,-24,30
-59,1718,-29,9,-16,19,4,4,-13,39
-79,2202,-42,-8,-22,19,-8,-8,-8,19
-81,2242,-14,20,-3,27,-10,-33,-52,-17
-69,1964,33,50,23,20,-13,-67,-89,-34
-39,1444,41,47,25,9,5,-63,-65,-14
0,628,34,28,11,1,27,-43,-20,6
7,-204,30,14,17,-12,23,-20,-26,-2
12,-915,30,12,27,-3,38,14,-14,-16
29,-1534,28,7,25,3,45,42,34,-19
22,-2034,23,3,21,1,40,11,40,-17
22,-2256,17,-4,15,-6,38,-5,0,-2
35,-2210,12,-4,6,-12,34,3,23,6
38,-2030,13,0,0,-9,27,0,7,-12
33,-1642,7,2,-1,-10,8,1,-31,-36
20,-1118,1,-8,2,-7,-11,4,-23,-35
-4,-523,-18,-7,-8,-1,-25,0,-24,-39
-27,205,-35,-19,-7,14,-36,-7,-28,-40
-45,860,-41,-30,-6,6,-31,-15,-45,-50
-54,1202,-94,-26,-22,2,-34,-20,-60,-54
-35,1111,-77,-13,-25,7,-49,-14,-51,-45
-37,763,-83,0,-28,13,-53,-7,-33,-32
-15,132,-61,6,-24,26,-37,-4,-23,-14
7,-721,30,7,-24,31,-29,-1,-43,-24
33,-1469,42,11,-22,30,-31,4,-33,-19
34,-2067,45,2,-17,10,-29,0,0,-8
19,-2544,47,1,-12,-7,-23,8,0,-21
12,-2848,43,0,-9,-4,-12,15,-22,-33
8,-2832,31,-4,-4,9,-1,18,-17,-37
-3,-2617,21,3,-11,11,20,13,-2,-33
-31,-2264,22,-14,-13,12,19,2,8,-34
-34,-1736,13,-6,-8,16,9,-1,-7,-40
-38,-1081,14,3,-1,15,0,-11,-25,-36
-57,-288,-4,3,-5,15,-11,-19,-40,-33
-77,561,4,-4,2,19,-18,-18,-54,-61
-67,1265,-12,3,9,33,-22,-30,-56,-81
-50,1561,-3,11,8,34,-18,-32,-36,-55
-41,1484,13,4,8,28,-11,-13,35,-39
-35,1176,19,-13,7,17,-5,0,8,-36
-30,523,17,-20,13,15,4,15,-20,-18
-14,-162,5,-28,0,12,18,26,21,-16
25,-693,16,-28,0,-4,5,11,18,-20
48,-1163,21,-23,24,-9,8,14,42,-23
53,-1619,40,9,58,-9,27,33,141,-11
52,-1985,38,-4,25,-6,22,8,116,10
57,-2034,9,-6,3,-19,4,-1,40,64
53,-1861,-5,-11,2,-22,2,-2,11,90
28,-1395,-20,-28,8,-15,0,2,11,62
4,-698,-19,-14,10,-5,0,-2,28,7
-3,41,-21,-6,14,2,-1,-11,-3,-24
-3,872,-75,-1,27,15,-11,-20,-50,-40
-11,1666,-98,0,26,17,-22,-28,-46,-40
-22,2153,-16,7,27,25,-28,-27,-65,-24
-41,2178,1,-8,20,27,-21,-25,-41,-12
-59,1935,-1,-32,4,15,-22,-30,-28,-19
-65,1455,-10,-48,-13,4,-10,-16,-21,-40
-36,709,-15,-43,-21,3,30,3,31,-31
-16,-11,-28,-14,-6,20,31,7,9,-33
12,-640,-22,-1,9,13,21,12,-4,-38
58,-1141,36,-4,4,-10,33,26,14,-27
85,-1463,38,-8,1,-14,30,32,12,0
64,-1567,16,-12,11,-6,22,32,63,37
14,-1463,-14,-11,16,9,50,36,70,26
-2,-1204,0,3,16,13,55,4,15,1
-5,-745,36,6,0,0,25,-17,-28,-9
-19,-208,24,9,-5,1,45,-23,-27,-44
-28,380,15,12,-3,13,54,-34,-45,-62
-26,1083,5,10,-2,15,30,-28,-64,-48
-36,1718,2,11,25,21,27,-16,-54,-36
-44,2013,2,6,32,16,21,-25,-58,-36
-18,1840,8,3,12,8,-2,-38,-52,-32
-2,1436,4,-1,-8,-1,-33,-32,-32,-14
-13,750,0,-10,-11,-8,-6,-11,-11,7
-6,-110,0,-7,-12,-16,-1,13,36,27
27,-893,2,0,-12,-32,0,9,29,34
55,-1571,6,2,-2,-42,-15,6,52,59
44,-2126,13,7,-8,-31,-18,23,33,46
38,-2501,9,5,-6,-24,-7,22,39,15
34,-2549,-2,4,2,-13,2,18,47,-16
20,-2353,-3,12,1,4,15,18,5,-28
27,-1966,-75,1,3,4,-3,1,-16,-8
31,-1376,-55,-14,7,10,-14,-11,-7,-10
11,-712,31,-16,2,19,-26,-9,-14,-13
0,80,32,-16,8,22,-37,-14,-32,-2
-9,944,13,-1,13,31,-49,-6,-38,-17
-27,1632,-63,0,1,11,-54,-2,-21,-27
-16,1910,-24,-17,-18,-19,-58,17,38,5
11,1841,12,-15,-11,-25,-45,22,48,23
34,1518,27,9,-3,-5,-35,11,6,48
41,835,35,23,3,6,-17,1,8,65
41,101,33,10,12,0,28,3,29,61
47,-492,-28,5,1,-11,32,2,6,58
20,-986,-3,1,8,-17,20,-7,0,13
-20,-1407,59,7,10,-4,40,-5,-15,-28
-16,-1561,59,13,4,-3,51,14,8,-25
6,-1407,52,15,2,-1,46,28,55,-12
42,-1109,-4,12,-5,-3,40,23,45,-33
36,-606,-4,26,-8,-8,39,1,13,-44
6,35,11,30,7,-2,35,-23,-36,-64
-9,703,-42,28,9,7,22,-22,-66,-71
-27,1516,-27,27,7,13,7,-18,-62,-64
-46,2329,-112,19,1,21,8,-25,-63,-54
-29,2881,-155,18,9,18,0,-42,-59,-58
-22,2993,-154,18,10,12,-9,-33,-15,-44
-46,2831,-118,27,16,25,-2,-12,47,-47
-41,2371,-26,32,24,32,18,-10,36,-37
-22,1630,43,31,22,36,28,-8,21,-14
-6,939,20,14,0,27,10,0,19,17
-21,340,48,16,-9,4,-11,0,28,-2
-18,-158,50,18,-14,7,-36,12,48,-28
13,-488,-9,8,-20,7,-41,6,8,-22
16,-533,32,16,-6,9,-36,11,-7,-15
1,-359,75,14,7,14,-33,12,-14,-17
-12,-30,62,17,1,12,-12,7,-2,6
-14,507,59,18,-3,14,13,5,7,0
-5,1108,64,14,1,27,9,-5,-2,-1
5,1776,49,16,1,31,-5,-9,0,-9
-5,2559,36,13,-11,14,-46,1,18,-15
-19,3236,38,11,-22,13,-57,-6,-3,-25
-6,3535,38,12,-33,17,-71,-4,-25,-30
-8,3412,7,5,-26,8,-70,-7,-24,-6
0,3033,-12,-13,-20,-6,-31,18,20,20
14,2299,9,-11,-28,-17,-6,39,14,41
11,1417,11,-8,-21,-22,-17,19,17,72
-7,628,-8,-9,-16,-16,-12,4,-1,38
0,-60,3,-7,-8,-17,0,8,23,-4
13,-647,31,-6,4,-19,0,11,12,-11
22,-1042,20,-9,-5,-19,8,17,3,16
27,-1132,22,-13,-9,-8,10,23,19,44
26,-1054,32,11,-5,8,6,20,27,54
19,-783,17,13,-7,10,1,11,0,57
15,-325,-12,11,-18,12,-7,-4,-4,38
-9,167,-61,-3,-19,12,-28,-12,-4,14
-29,793,15,6,-10,11,-5,-25,-18,-23
-44,1491,17,-7,-5,14,21,-31,-48,-40
-46,1982,7,-32,1,20,2,-15,-40,-45
-49,2033,-1,-23,7,17,-17,-20,-45,-52
-36,1769,12,-6,15,12,3,-15,-64,-38
5,1275,26,-7,5,9,11,-19,-58,9
35,432,19,-14,-16,0,3,-8,-73,39
41,-422,12,-9,-14,-13,-15,0,-54,42
47,-1145,18,-7,-3,-6,-14,11,-8,43
46,-1782,4,3,25,1,1,25,78,45
43,-2289,26,30,52,11,15,43,143,33
35,-2544,28,16,32,4,17,46,120,29
42,-2487,28,0,17,-4,5,36,79,35
39,-2268,24,-7,11,-17,-5,0,37,33
16,-1836,11,0,11,-18,-18,-8,-15,9
11,-1253,5,2,5,-4,-17,3,19,-20
11,-600,-8,-3,-8,0,-9,7,-15,-9
0,196,-28,-16,-22,-9,-9,15,-33,18
-18,978,-26,-10,-23,-4,-11,6,-32,14
-40,1487,-20,2,-9,3,-8,-5,-30,-12
-42,1559,-23,-2,3,4,-7,-1,-4,-6
-24,1375,-17,0,15,14,-4,17,10,-5
-4,928,-7,27,38,17,16,47,87,0
1,235,-14,5,22,4,24,47,74,-2
6,-378,-24,-22,8,-12,32,27,42,-1
41,-835,-13,-10,20,-10,54,31,55,6
69,-1193,-27,10,12,-9,62,26,43,30
81,-1372,23,30,25,-1,55,15,82,28
74,-1254,45,30,24,1,33,14,57,27
59,-925,37,27,17,-2,9,16,40,31
12,-469,3,9,-5,-6,-10,-5,-16,7
-5,250,-24,24,7,-16,-13,0,4,-7
19,1025,-122,23,6,-6,-25,-7,5,-15
5,1898,-57,16,13,15,-29,-11,12,-29
-25,2894,22,27,31,35,-29,-5,51,-51
-46,3716,17,6,0,24,-43,-22,-13,-65
-41,4133,32,15,-11,14,-29,-37,-64,-75
-34,4178,51,29,19,18,-2,-45,-60,-73
-21,3965,44,23,21,7,-1,-40,-72,-56
16,3424,37,11,19,-3,0,-36,-66,-23
46,2740,20,10,7,-14,6,-31,-58,20
61,2155,23,7,10,-21,24,-9,-16,35
73,1635,43,16,36,-23,37,1,48,63
62,1180,9,21,43,-35,12,24,150,112
43,901,6,11,33,-31,12,21,124,107
16,878,20,1,16,-30,8,6,48,58
17,1027,23,7,30,-14,10,0,69,27
17,1352,36,12,36,-11,19,-5,81,9
2,1823,33,6,27,-7,7,-6,64,-2
-11,2302,23,-8,1,0,-6,-13,-22,-51
-41,2914,19,-8,-8,16,-18,-11,-112,-101
-53,3544,5,-7,-7,12,-20,-14,-145,-101
-59,3960,-10,4,12,9,-11,-20,-111,-79
-41,3958,-6,13,22,2,10,-13,-28,-68
-19,3606,-28,3,-4,-4,-14,-21,-40,-39
-6,3016,-28,2,-9,-6,-9,-3,23,4
23,2107,14,8,3,5,4,22,110,25
35,1152,-30,-6,-21,3,4,8,-9,-4
53,305,-88,-7,-34,-3,14,6,-67,-29
62,-454,-12,-16,-43,-23,13,27,-57,-4
81,-1096,0,-40,-33,-26,31,40,6,36
89,-1448,9,-28,7,-19,57,51,106,46
46,-1589,-35,-28,17,-20,39,46,94,32
5,-1584,-115,-11,13,-5,27,6,58,24
-21,-1366,-78,3,36,8,29,-17,50,-20
-26,-1093,-47,-6,8,7,9,-35,-56,-55
-11,-710,13,-17,-17,0,-4,-46,-141,-64
-25,-142,15,-16,-9,3,-10,-58,-118,-82
-32,376,9,-14,-6,5,-24,-50,-65,-80
-52,602,6,-26,-11,12,-29,-36,-73,-64
-68,415,4,-27,-29,24,-29,-18,-92,-37
-69,0,24,-13,-7,29,-15,-1,-26,-20
-56,-720,34,-4,19,33,11,0,53,-17
-17,-1634,30,0,11,30,29,-4,2,0
25,-2434,40,10,29,2,36,7,43,16
36,-3114,10,-2,-2,-25,50,-16,0,32
44,-3642,-23,2,11,-18,80,-14,41,41
47,-4007,-110,-21,-9,-30,66,-17,23,35
28,-4065,-117,-34,-45,-46,38,-9,-26,0
18,-3888,-23,-4,-26,-40,26,3,3,-18
15,-3507,13,17,13,-17,18,2,38,0
14,-2901,41,13,20,1,8,0,54,1
0,-2268,38,9,-2,1,2,-4,-5,-7
-17,-1524,38,2,17,-13,-13,-2,27,-15
-46,-674,17,0,13,-13,-20,-6,40,-27
-50,53,-12,0,15,3,-25,14,50,-11
-52,379,-14,-6,0,9,-41,8,16,-13
-44,348,-70,-6,-6,3,-27,0,5,-17
-18,70,-128,-6,-14,8,-15,16,4,4
-6,-532,-60,-11,-15,6,-2,27,18,22
2,-1249,22,-3,-9,10,12,21,19,12
27,-1832,-1,7,-6,2,10,12,-11,-3
27,-2291,0,22,-23,-2,5,5,-43,2
19,-2651,23,17,-17,5,7,8,-29,24
1,-2801,-15,5,-7,0,35,9,-11,33
-9,-2636,9,-4,-16,-10,59,4,5,32
-3,-2292,21,-4,-6,-19,51,12,62,4
-3,-1735,21,7,10,-16,33,11,79,11
8,-1047,20,6,-1,-10,31,10,60,35
13,-328,34,0,-4,1,23,1,33,44
-1,521,24,-9,-9,6,2,-9,-9,38
-25,1378,10,-6,-19,7,-6,-20,-8,27
-30,1973,3,-18,-45,9,-48,-30,-84,18
-26,2099,-2,-27,-70,20,-61,-46,-185,1
-33,1949,-7,-38,-71,21,-54,-48,-182,-13
-26,1529,-50,-28,-71,9,-46,-41,-165,-37
-6,812,-128,-2,-59,1,-42,-26,-156,-50
10,96,-146,6,-52,1,-20,-10,-110,-1
22,-514,-83,-4,-53,-7,-15,2,-64,36
31,-1004,22,-1,-18,-10,0,23,16,27
14,-1384,10,-27,-30,-8,10,27,17,23
13,-1473,29,-8,-32,-14,16,5,-70,20
20,-1305,41,8,-18,-19,27,-12,-94,20
-6,-1006,-2,-5,-22,-16,33,1,-85,34
-17,-510,-4,-10,-13,-12,19,-12,-64,14
-8,87,9,-1,-2,-5,25,-6,-6,0
-14,731,4,5,-2,-6,12,-13,-31,-10
-24,1495,-2,-5,0,-2,-1,-20,-53,-16
-38,2185,-5,5,4,14,0,-19,-81,-8
-32,2538,-87,8,-1,19,-11,-15,-101,-18
-8,2481,-125,0,-9,15,-8,-21,-79,-35
13,2198,-10,-7,-4,6,-37,-39,-103,-38
16,1606,11,0,-13,10,-45,-33,-82,-12
0,819,-34,-5,-8,8,-20,-27,-59,-8
-2,124,13,-2,3,4,-5,-12,-38,0
21,-432,31,9,1,-5,19,-6,-38,4
44,-851,51,1,-7,-31,23,-12,-59,18
69,-1100,39,-16,-15,-36,19,-22,-41,61
88,-1090,24,-28,-19,-31,12,0,25,120
45,-917,2,-35,-39,-20,6,43,83,118
-2,-541,-24,-28,-48,-13,12,50,64,72
-20,50,19,-15,-36,0,2,20,1,10
-31,682,34,1,-16,-1,-18,-12,-63,-37
-33,1418,19,6,-15,-5,-58,-10,-74,-52
-40,2214,-6,4,-15,-1,-88,7,-12,-54
-34,2820,-4,-9,-10,-2,-78,12,10,-72
-51,2994,7,-12,-13,-6,-36,4,0,-77
-63,2787,18,1,1,1,-22,-2,31,-55
-55,2339,6,11,4,5,-9,12,114,-13
-35,1596,5,14,0,2,17,18,140,0
-6,769,23,10,3,0,29,28,95,-1
4,46,30,8,12,6,14,30,60,0
17,-594,27,-9,0,-7,-1,22,45,0
28,-1159,41,-1,5,-23,-22,8,38,-4
43,-1464,43,16,12,-27,-25,11,32,-10
45,-1464,15,-7,-2,-11,-14,28,38,15
19,-1351,29,-14,-2,-4,-24,15,24,6
-5,-1016,52,0,23,-5,-35,14,6,-10
-19,-529,18,-10,16,-4,-42,24,1,10
-13,-5,-7,-17,4,-3,-35,13,5,27
-23,634,-24,-14,2,5,-8,-3,4,5
-54,1252,-15,-10,10,11,-2,-9,-12,-20
-48,1613,32,16,24,12,-26,-25,-42,-19
-12,1512,52,21,18,20,-57,-35,-61,-7
-9,1112,27,-3,-6,20,-64,-32,-51,4
-14,448,-28,-19,-14,11,-34,-23,-26,26
-15,-524,-4,-37,-14,-3,0,2,-6,31
-2,-1430,11,-40,-12,-13,32,5,-19,22
18,-2179,19,-26,-27,-20,31,0,1,15
19,-2806,26,-10,-30,-30,19,0,21,15
29,-3276,29,-7,-18,-34,2,1,35,11
36,-3436,12,-1,-5,-20,-2,18,67,6
39,-3348,-33,19,13,1,26,20,54,18
40,-3100,27,29,19,12,36,3,7,24
22,-2609,51,32,17,8,25,0,-8,17
21,-2024,36,6,29,11,16,2,5,19
13,-1321,26,8,22,21,-8,0,-15,14
-9,-507,26,26,19,28,-28,-9,-17,16
-23,196,20,22,27,33,-6,-25,-10,0
-12,542,22,30,24,35,6,-15,-10,-6
7,480,15,22,19,23,1,-7,-2,-5
-3,157,-47,6,17,23,2,-7,3,6
-25,-503,-143,8,18,13,27,4,47,20
-27,-1277,-92,21,21,5,34,6,44,9
-24,-1953,28,23,23,0,16,17,32,-3
-11,-2527,54,19,23,-4,-5,26,40,6
16,-2959,31,4,14,-18,8,39,41,20
39,-3177,31,0,1,-28,16,42,72,41
39,-3112,13,-5,0,-22,19,43,81,50
17,-2879,9,-5,15,-5,17,25,49,39
20,-2463,37,9,33,4,18,9,54,16
11,-1871,19,12,42,10,-5,-4,19,0
-11,-1269,-8,-2,45,7,-12,-13,3,-1
-10,-519,-31,-14,22,3,-27,-15,8,8
-12,268,-2,-1,8,8,-33,-22,-18,19
-25,845,-11,-5,14,15,-25,-15,-13,33
-39,962,-20,0,15,15,13,-7,0,21
-51,751,-7,16,11,17,31,-15,-10,-6
-59,298,-6,19,16,14,23,-13,6,-23
-46,-448,-11,12,17,8,34,-2,24,-32
-15,-1228,-22,-6,14,5,44,13,37,-17
-4,-1861,4,-3,19,12,58,28,42,-10
-1,-2352,-11,11,21,11,50,34,66,-11
6,-2985,12,16,10,-2,52,22,36,-4
16,-2787,9,13,25,11,52,5,19,-1
15,-2419,10,11,23,6,50,-4,30,4
12,-1824,11,11,17,-1,37,-8,8,20
5,-1113,11,2,17,0,9,-16,-13,14
-9,-339,-32,6,20,2,-25,-32,-22,-4
-12,576,-136,12,12,0,-45,-39,-22,-4
-14,1442,-167,1,-1,7,-50,-37,-22,-4
-22,1994,-101,1,1,13,-41,-43,-16,-8
-16,2108,-4,1,3,15,-5,-33,-2,-15
-4,1949,6,-9,6,7,10,-24,24,-16
14,1489,14,-6,1,3,10,-17,13,3
40,780,18,-7,11,0,18,0,32,22
52,106,-10,-19,14,-3,30,6,41,47
54,-442,-23,-17,18,-5,39,11,63,47
67,-874,19,15,46,-5,43,21,150,55
81,-1168,52,8,54,-3,33,10,155,69
71,-1167,11,12,55,0,27,0,108,53
49,-972,-57,18,58,5,31,-1,97,21
34,-627,18,26,56,14,36,-5,96,0
20,-102,36,17,24,15,-7,-28,17,-10
21,491,53,29,30,24,-18,-32,2,14
25,1177,71,35,38,23,-21,-21,-16,40
11,1949,24,-19,-9,4,-49,-14,-37,32
-7,2608,-16,-23,-18,-9,-54,6,5,19
-35,2846,8,-31,-12,-12,-55,2,19,8
-47,2692,13,-32,-10,-14,-69,10,45,-1
-16,2324,19,-30,-22,-21,-79,27,91,-3
21,1622,22,-13,-25,-17,-64,51,165,9
51,837,32,12,22,2,-6,59,255,3
43,129,27,10,41,-2,16,24,99,-9
31,-458,-22,14,35,0,7,16,18,-30
53,-1224,6,13,24,-13,10,37,128,38
44,-1186,-18,-15,-16,-25,5,20,36,29
0,-986,23,-17,-28,-16,-9,-3,-26,-15
-21,-552,40,20,0,3,-3,-3,13,-40
-17,45,52,28,1,9,10,8,7,-71
-32,625,48,3,-8,1,-4,-15,-70,-78
-56,1348,40,14,-10,8,-28,-6,-103,-62
-37,2116,27,17,-8,15,-40,-3,-71,-35
-13,2631,17,15,15,21,-36,-15,-1,-13
-24,2681,-14,18,18,10,-28,0,43,4
-60,2389,-3,7,-11,2,-34,7,-11,1
-94,1804,-80,1,-34,3,-13,1,-69,-22
-98,948,-68,-1,-22,9,39,13,-22,-32
-82,103,-12,-14,-3,9,36,12,-19,-27
-24,-595,33,9,7,7,17,10,-9,-21
7,-1202,44,16,13,-3,32,25,35,-7
11,-1728,-29,2,-14,-16,27,25,-41,9
25,-1969,0,-12,-35,-14,15,17,-83,34
28,-1923,12,-29,-47,-19,41,0,-91,40
33,-1732,-2,-23,-47,-19,45,-16,-128,18
19,-1307,15,-5,-25,-10,27,-14,-102,-5
-6,-770,15,-7,-26,1,-13,-12,-94,-22
-9,-158,10,26,3,14,-24,-14,-51,-18
-6,628,16,33,29,23,-6,-5,29,15
-9,1333,1,24,0,22,-18,-15,4,25
-24,1707,-22,13,-19,11,-18,-20,-54,6
-23,1689,-5,23,1,9,26,-10,-33,0
-11,1401,0,4,-20,-1,24,-17,-123,0
17,787,4,0,-16,-5,28,-13,-87,16
33,-5,3,-1,-13,-6,38,0,-25,23
33,-682,-10,0,-8,-8,45,11,-38,46
45,-1269,-88,0,0,-7,50,31,-19,59
44,-1744,-128,3,12,-7,59,23,0,49
36,-2046,-1,6,10,-29,5,-37,-68,20
16,-2008,23,1,11,-29,-16,-41,-52,38
13,-1780,1,0,26,-11,12,-35,-47,39
3,-1387,6,-2,36,5,46,-26,-20,20
-8,-795,-3,-8,28,10,41,-15,-59,7
-8,-134,13,-2,23,6,18,-21,-93,-10
-2,642,18,-4,23,13,0,-20,-41,-36
-23,1480,0,-4,30,21,-9,-26,-39,-63
-41,2154,-30,3,27,23,-21,-35,-62,-51
-38,2397,0,8,21,21,-35,-30,-46,-25
-25,2298,16,14,14,10,-43,-18,27,20
-17,1945,11,-1,-8,3,-32,-11,62,29
-7,1274,18,-1,-16,3,-22,12,106,52
12,505,5,-19,-19,-7,-17,30,110,73
37,-138,3,-26,-29,-13,-12,23,50,81
70,-648,3,-14,-31,-15,-7,31,40,97
92,-1056,-14,-29,-33,-16,-7,9,1,95
92,-1215,-2,-12,-13,-13,3,-8,43,75
78,-1090,-1,-17,9,-20,32,15,116,74
76,-834,-47,-8,21,-27,43,14,100,57
36,-426,5,0,0,-21,-3,-2,-20,-1
9,137,-8,-8,-17,-14,-25,-22,-87,-28
-24,749,-104,-15,-9,6,-36,-27,-85,-25
-62,1521,-34,-3,21,16,-28,-13,1,-33
-106,2273,27,5,37,22,-15,-3,24,-63
-126,2746,30,7,25,32,1,0,11,-76
-108,2749,-26,0,-11,30,18,5,-39,-49
-66,2487,-31,-11,-15,28,40,26,-25,-19
-44,1960,16,-10,3,29,34,35,40,-13
-46,1131,-16,15,19,31,21,27,75,0
-18,289,-76,23,-1,3,6,-4,-1,12
14,-414,-34,12,-10,-26,14,-16,-15,20
34,-993,45,8,7,-27,33,12,27,36
18,-1492,70,-6,-9,-17,35,23,22,36
6,-1742,54,-13,-33,-12,24,9,-41,30
-1,-1720,54,-12,-33,-33,7,5,-62,20
2,-1532,65,-2,-29,-25,-2,0,-20,-1
12,-1142,64,0,-32,-16,-5,-14,-31,-10
15,-687,47,3,-25,-15,-6,-22,-46,-41
0,-149,16,2,-21,-25,-1,-29,-37,-58
-7,559,54,2,-1,-1,7,-17,56,-60
-19,1190,35,5,13,8,5,-11,99,-47
-49,1456,15,10,23,8,-9,-7,95,-42
-60,977,29,6,18,2,-39,-10,29,-43
-34,287,48,10,32,7,-30,8,70,-31
-30,-586,11,4,15,9,-15,14,45,-17
-13,-1324,-5,-7,8,10,-10,13,-1,-14
10,-1924,-22,-6,18,4,6,8,50,-7
21,-2414,-43,-26,-15,-9,9,1,2,6
20,-2662,-16,-26,-15,-8,12,13,-3,15
17,-2565,51,-13,10,1,16,11,8,-5
12,-2336,47,-21,-17,-19,11,-23,-119,0
10,-1892,-18,-22,-37,-34,16,-51,-200,19
-2,-1219,-132,-45,-42,-37,23,-61,-223,-10
-34,-493,-112,-50,-47,-39,20,-53,-199,-28
-45,326,-16,-55,-60,-39,8,-34,-167,-36
-50,1199,-7,-53,-63,-33,-25,-20,-133,-48
-38,1914,-3,-28,-47,-23,-34,-10,-23,-60
-5,2207,16,-15,-28,-4,-37,7,43,-55
-17,2158,31,0,-25,8,-40,31,26,-74
-47,1829,4,22,0,25,-18,44,9,-78
-50,1183,20,38,25,30,-3,60,32,-46
-15,517,27,32,31,21,3,54,57,-20
28,-19,30,26,7,7,3,49,45,9
59,-464,32,27,2,-8,-7,51,48,27
67,-772,25,21,29,-12,5,57,124,15
61,-837,-8,41,47,-8,3,60,178,13
52,-639,33,38,32,-11,-2,39,149,5
39,-292,49,20,22,-1,-4,17,148,-1
39,271,50,34,47,6,0,19,146,0
42,933,39,36,47,8,19,5,93,-2
19,1610,40,18,24,10,1,-12,20,-2
-11,2446,50,35,33,20,-28,-20,24,-5
-30,3233,38,34,23,20,-40,-35,-51,-35
-53,3706,9,-3,-12,12,-49,-57,-160,-74
-63,3755,-2,-12,-16,3,-31,-48,-164,-95
-45,3581,13,8,6,13,-23,-21,-92,-70
-21,3146,25,22,14,13,-19,-11,-53,-48
-4,2395,31,25,19,15,4,-15,-37,-29
6,1777,46,30,45,17,13,11,69,2
0,1132,39,26,44,17,23,27,73,24
1,466,29,4,9,1,22,22,-8,17
10,95,34,10,24,-6,27,22,32,1
14,-3,20,11,4,-11,14,26,31,8
20,289,0,-4,20,-11,24,43,98,38
36,735,-11,-16,31,-4,22,47,128,59
75,1216,15,2,23,-8,0,17,98,40
27,1803,2,-8,-18,-10,-9,7,17,14
-18,2477,-21,-15,-12,-1,-3,6,2,0
-18,3065,-39,0,18,18,-23,-1,28,0
-27,3277,-25,0,17,29,-39,-21,-3,0
-43,3077,-63,-9,7,22,-33,-29,-55,3
-33,2661,-138,-18,22,10,1,-10,-21,18
-20,1911,-87,-14,31,17,36,15,19,52
-5,962,-13,-5,39,18,43,23,29,46
-1,126,-49,-10,31,23,26,15,-11,31
-5,-575,-25,-7,26,17,21,18,9,9
0,-1183,31,-11,23,-3,18,17,41,3
2,-1616,-18,-18,10,-21,16,5,0,6
14,-1717,-114,-27,6,-27,0,9,7,28
30,-1625,-33,-28,7,-25,0,7,54,46
31,-1325,31,-14,4,-37,19,6,57,44
2,-835,13,-10,-2,-25,27,9,61,23
-7,-310,12,3,11,-3,6,-1,56,1
-15,345,24,8,13,4,-27,-26,25,4
-43,1046,18,2,-6,1,-45,-26,-17,38
-58,1542,2,-15,-10,-1,-45,-12,4,21
-42,1603,0,-17,-10,1,-42,-17,-3,-6
-17,1333,5,2,-23,0,-48,-40,-95,-22
3,836,3,11,-15,0,-28,-13,-33,-3
32,41,8,4,-4,-4,-20,12,41,28
39,-771,15,5,-24,4,-12,7,2,15
1,-1477,19,4,-28,9,6,24,-53,10
-23,-2040,34,9,-14,11,9,34,-43,8
-20,-2461,33,3,-26,2,22,17,-63,12
25,-2604,34,14,-4,12,44,19,8,37
53,-2486,33,11,8,1,47,13,43,52
48,-2195,26,-2,-12,-15,56,3,-6,23
43,-1665,12,2,-35,-7,42,-11,-73,1
31,-1070,15,18,-19,-2,26,-18,-80,-19
27,-379,30,21,7,4,4,-15,-34,-46
7,443,16,15,4,3,-31,-18,0,-54
-2,1177,-35,-2,-16,5,-48,-27,-43,-25
-24,1579,-81,-23,-38,6,-62,-38,-113,-18
-46,1541,-66,-43,-61,18,-66,-39,-148,-21
-52,1261,-46,-35,-46,24,-63,-31,-150,-24
-31,660,-41,-20,-26,15,-55,-17,-110,-15
-4,-184,-101,-25,-30,2,-50,-7,-116,3
14,-956,-50,-28,-29,-3,-30,0,-110,15
31,-1626,-3,-27,-15,-4,-14,6,-73,30
65,-2160,13,-27,-24,-11,-23,0,-90,16
72,-2522,39,-16,-27,-13,-14,1,-100,-21
28,-2625,26,-14,-24,-7,1,-2,-100,-60
0,-2509,12,-15,-25,-9,10,7,-61,-69
-17,-2212,7,-13,-20,-6,-4,16,-37,-54
-37,-1696,7,0,-4,3,-17,14,-55,-41
-39,-1103,5,15,7,13,-13,3,-61,-30
-26,-388,-36,15,1,16,-23,-10,-52,-33
-19,433,-38,15,2,17,-34,3,-6,-29
-24,1127,-26,0,-6,15,-47,3,-15,-10
-29,1439,-4,-16,-19,4,-40,-24,-70,-6
-13,1389,6,-16,-13,-1,-36,-35,-74,7
-22,1083,7,-5,-4,-2,-35,-43,-81,9
-24,457,21,-1,2,-1,-15,-38,-76,14
-30,-280,17,3,13,-7,5,-9,40,36
-61,-939,-26,5,18,-16,12,38,148,44
-49,-1483,-54,-18,11,-23,4,32,90,73
5,-1905,27,-4,20,-19,11,14,82,98
21,-2131,55,8,22,-27,9,3,76,81
24,-2059,37,4,14,-35,13,-4,38,42
11,-1838,-6,-18,-30,-33,-4,-17,-82,3
12,-1374,-8,-25,-46,-35,-14,3,-10,4
-1,-760,6,-13,-34,-29,-2,39,123,31
-26,-130,15,-6,-15,-14,-2,63,92,1
-38,664,19,-1,11,-8,-7,65,86,-18
-53,1460,-28,6,21,-11,-8,46,87,-23
-61,2015,0,21,22,13,13,31,70,-49
-20,2139,18,15,5,20,27,2,55,-53
45,1971,13,17,0,16,5,-10,68,-18
28,1507,-1,-9,-22,13,-2,-18,-27,12
13,747,0,-1,-15,3,5,12,38,53
12,-28,0,10,-6,-11,14,49,109,58
19,-667,5,16,0,-11,56,42,76,51
25,-1192,31,20,12,-8,64,28,27,30
35,-1580,45,15,29,-9,65,32,66,-2
66,-1720,22,-9,-13,-19,21,12,-9,-10
61,-1602,-6,-39,-46,-27,-8,-3,-72,0
49,-1304,1,-13,-21,-27,12,15,-20,-5
18,-774,0,17,10,-17,27,33,92,-10
-18,-172,-20,17,2,-4,18,13,73,-29
9,470,-25,9,-14,-8,-17,-18,-50,-37
40,1294,-29,2,-24,-19,-41,-36,-94,-34
18,2024,-61,-3,-18,-20,-62,-40,-78,1
-35,2406,-41,1,0,-19,-64,-38,-70,20
-31,2385,-41,31,24,-13,-42,-28,0,-7
-1,2115,-28,28,27,1,-18,-30,30,-26
12,1480,-5,-11,1,0,-6,-17,4,-41
18,634,-11,-8,18,-6,9,18,25,-45
31,-144,-99,13,35,-3,18,31,80,-29
34,-802,-100,17,33,0,46,33,96,-6
21,-1380,-5,-2,10,-3,52,13,-10,6
37,-1805,20,-7,3,-3,30,-1,-65,26
46,-1895,23,-5,0,-19,8,-15,-64,29
34,-1762,30,-1,6,-28,11,5,12,44
28,-1446,14,0,10,-20,1,21,77,56
35,-936,-74,-3,-14,-15,-2,-5,22,60
21,-362,-28,-7,-9,-6,18,-3,55,65
-37,283,-6,-29,-33,-4,9,-5,19,7
-101,1025,-6,-27,-38,5,5,-16,-55,-46
-133,1635,-3,-16,-27,18,-12,-36,-92,-66
-132,1861,-47,-23,-23,33,-20,-38,-125,-71
-101,1733,-71,-21,-25,26,-27,-38,-117,-69
-76,1357,-5,-14,-14,10,-24,-27,-69,-64
-51,642,10,-5,-2,-3,-19,-9,-32,-51
-11,-128,16,-5,-8,-2,-10,3,-31,-15
7,-764,17,-13,-8,-2,14,15,-13,-1
22,-1293,-6,4,29,-3,23,16,63,3
40,-1713,25,13,26,-10,12,-4,0,-9
19,-1888,49,25,25,-20,32,6,15,-29
12,-1786,22,22,23,-22,40,16,32,-38
-1,-1566,40,12,7,-12,45,16,-5,-55
2,-1127,49,30,32,-9,53,21,102,-56
28,-541,50,35,38,-8,37,6,132,-59
1,21,32,24,1,-9,1,-22,-6,-72
-23,749,22,3,-19,-1,-37,-33,-82,-64
-51,1480,-5,14,13,16,-39,-27,0,-65
-37,2088,-1,13,28,19,-35,-45,82,-67
-30,1791,-4,16,14,15,-5,-48,78,-45
-23,1195,27,11,9,1,29,-23,41,-37
-11,338,44,14,18,5,51,21,95,-39
33,-501,24,-14,-15,-21,36,31,53,-20
79,-1214,-34,-37,-33,-33,19,46,11,17
97,-1802,-81,-26,-11,-17,24,36,64,46
89,-2292,-10,-27,-19,-18,25,7,-9,31
74,-2456,-25,-16,-23,-13,24,-2,-105,-23
63,-2346,-18,-8,-7,-13,25,-10,-90,-62
48,-2083,44,8,1,-9,24,-12,-66,-75
31,-1600,36,0,-3,-9,-15,-7,-16,-82
6,-1037,-11,-37,-49,-38,-44,-3,13,-53
7,-362,-44,-37,-61,-31,-34,1,21,-23
0,423,-129,-25,-37,-6,-25,2,75,-33
-38,1114,-105,-18,-23,7,-6,-10,43,-77
-59,1458,-21,-8,-23,22,-19,-26,-15,-119
-50,1386,-44,-11,-14,22,-22,-25,-44,-113
-46,1068,-35,-18,-10,23,-9,-29,-71,-90
-40,405,12,-22,-20,28,-13,-33,-82,-78
-18,-424,30,-9,-25,34,-22,-19,-58,-49
0,-1112,36,-16,-32,22,-26,0,-44,-26
32,-1659,20,-14,-38,3,-15,13,-28,-8
77,-2100,-53,-15,-44,-13,15,14,-43,6
84,-2354,-32,-10,-50,-20,22,9,-36,21
74,-2294,-72,-5,-46,-22,-6,7,-30,37
47,-2033,-61,4,-15,-10,-21,9,31,49
10,-1589,37,24,30,15,-12,20,107,0
-16,-988,-28,36,22,29,-15,20,49,-23
-22,-362,-61,5,-18,30,-15,10,-50,-8
-46,410,41,-3,-24,39,-27,-3,-74,-33
-59,1268,40,6,-13,42,-41,-24,-84,-55
-65,1941,-75,11,-19,29,-28,-33,-98,-62
-58,2180,-33,8,-30,15,-21,-32,-104,-49
-42,2107,61,9,-23,13,-19,-25,-79,-23
-28,1783,78,7,-7,16,-35,-15,-51,2
4,1150,92,12,-9,13,-33,1,13,17
40,514,86,23,5,18,-23,25,113,43
78,-2,85,20,8,13,-15,31,137,78
81,-435,74,0,-1,6,-10,24,74,58
79,-754,37,-30,-16,-5,-12,32,6,43
98,-800,17,-34,-36,-16,-7,18,7,50
91,-568,48,0,0,-6,9,18,111,63
68,-205,56,11,34,9,40,20,170,67
45,337,52,5,21,15,20,19,96,14
-15,980,51,12,8,18,-7,12,30,-54
-82,1630,40,15,-6,26,-5,11,-29,-77
-93,2487,25,39,22,31,1,21,64,-68
-82,3311,23,29,36,30,13,15,99,-74
-79,3826,31,27,14,32,20,0,61,-88
-74,3885,-36,10,-24,24,20,-19,-62,-78
-57,3702,-12,7,-23,16,1,-21,-37,-63
-19,3221,20,26,8,18,-12,0,39,-25
33,2453,-24,18,-14,8,-12,0,27,9
47,1698,-88,-4,-57,-3,-7,3,-39,34
50,1062,-18,-13,-59,-10,-7,14,-54,46
57,522,33,-11,-39,-10,16,19,-3,39
41,117,35,-13,-33,-4,23,10,-24,28
7,2,43,-13,-31,-4,30,6,-19,3
9,116,45,-2,-6,8,50,26,85,-6
23,361,24,14,14,11,18,33,126,-2
25,809,-30,0,-9,-5,-17,7,31,1
22,1327,-18,-15,-23,-19,-31,-8,-51,-9
25,1962,2,4,7,13,-20,-9,6,-11
20,2700,2,24,18,34,-10,-3,68,-30
4,3314,-50,13,17,48,-19,-11,55,-47
-18,3546,-130,0,-8,41,-29,-41,-53,-62
-24,3386,-103,-22,-24,17,-37,-57,-126,-49
-42,2997,-16,-35,-13,15,-23,-48,-101,-19
-32,2304,-14,-39,-21,13,-18,-22,-77,25
32,1475,-34,-23,-24,-6,-16,10,-6,84
76,732,7,-19,-24,-9,4,18,9,94
88,86,22,-31,-24,-5,38,10,43,75
78,-468,34,-29,-19,-8,72,-2,73,34
63,-830,40,-8,-10,-6,60,-8,7,3
47,-899,31,-1,-1,7,8,-4,-40,-2
22,-793,12,-3,1,1,-2,-8,-53,12
-2,-505,14,-6,-6,0,14,-18,-59,22
-47,-56,-39,-12,-5,11,28,-14,-47,9
-54,441,-46,-27,2,15,18,-3,-25,8
-51,1076,6,-26,0,16,-17,-14,-41,20
-55,1731,12,-17,3,13,-26,-20,-61,17
-69,2153,4,1,2,7,-27,-28,-70,12
-52,2172,10,13,22,9,-22,-19,-37,-9
-7,1889,29,20,49,20,-9,0,90,-12
12,1320,20,6,27,9,-8,10,106,11
12,416,2,-19,-11,-4,-18,6,15,30
14,-544,-6,-34,-18,-11,-14,12,-13,72
0,-1393,-10,-23,-13,-1,-4,17,-7,90
-37,-2149,-13,-10,0,-7,6,34,18,80
-39,-2763,0,0,34,-3,40,44,93,55
-14,-3088,24,12,51,6,94,48,136,37
21,-3169,12,-10,12,-7,91,31,45,46
37,-3052,9,-6,18,-11,69,24,28,55
35,-2723,0,6,41,-6,62,39,67,65
17,-2282,-3,-2,35,-1,19,21,31,77
5,-1734,-16,-13,19,1,-19,12,14,87
-3,-1022,-26,-35,-16,7,-19,-16,-72,65
-17,-310,-22,-16,-7,15,6,-38,-81,40
-19,143,-8,16,25,20,21,-21,0,41
-18,153,-12,20,18,13,-1,-28,-15,43
-22,-61,-47,27,32,21,-10,-10,15,59
-13,-550,-113,35,57,35,5,5,85,90
9,-1280,-94,29,53,21,17,-13,71,92
29,-1906,9,15,6,4,18,-43,-37,75
37,-2406,65,16,3,-16,48,-37,-38,72
29,-2816,7,-8,-16,-34,47,-34,-74,85
27,-3047,11,-16,-25,-31,34,-57,-132,114
29,-2953,41,-11,0,-15,13,-45,-76,107
23,-2667,32,-22,7,-29,-1,4,8,85
-22,-2266,0,-50,-3,-36,-16,15,24,65
-46,-1601,17,-28,34,-6,-7,20,165,31
-42,-867,10,-7,27,16,-2,26,151,-9
-45,-20,-86,10,5,25,-16,12,33,-47
-44,927,-127,12,6,29,-13,7,-7,-41
-29,1726,-9,18,26,24,-21,-5,22,-41
-30,2094,46,-4,1,17,-31,-50,-62,-47
-18,2100,42,5,8,25,-4,-45,-32,-22
-12,1883,52,16,22,32,32,-17,44,-2
-4,1284,58,26,27,28,54,5,41,17
-4,590,55,30,21,19,54,-5,6,44
7,16,49,27,27,11,46,3,28,45
10,-480,-32,3,-13,2,28,0,-61,21
26,-850,-101,-5,-34,-7,23,-7,-73,22
48,-986,-75,-14,-40,-13,18,-4,-63,23
60,-853,16,-2,-16,-6,20,-18,-45,32
85,-525,12,34,35,-2,18,-21,48,43
75,-21,-11,38,39,2,12,-8,76,56
21,600,61,35,30,18,0,-17,7,48
-25,1248,75,62,35,36,-8,-41,-1,13
-37,2003,73,60,30,46,-7,-55,-30,1
-23,2770,61,62,36,34,-22,-45,6,23
-19,3268,21,51,26,21,-43,-31,24,41
-25,3311,11,33,0,16,-46,-28,-14,19
-43,3042,-13,18,-22,15,-28,-29,-98,-1
-51,2535,-110,12,-30,12,12,-23,-101,-10
-28,1750,-140,-4,-37,-2,21,-14,-76,5
21,943,-31,5,-24,-13,12,-8,-63,36
30,262,33,3,-22,-19,14,-6,-61,34
25,-330,43,-14,-23,-32,22,-3,-45,36
38,-833,35,-15,-9,-30,25,15,-26,32
21,-1035,38,-2,13,-15,45,16,12,20
26,-973,49,16,36,-4,53,11,67,16
29,-795,46,15,7,-12,29,-7,-17,18
4,-416,25,-7,-12,-11,12,-16,-76,0
-32,69,7,-16,-15,0,17,0,-52,-20
-34,597,13,-5,7,11,12,-14,-48,-18
-34,1240,7,5,21,7,-17,-41,-66,-8
-44,1837,-99,0,7,10,-50,-29,-81,-21
-45,2077,-128,-16,4,5,-69,-15,-52,-30
-33,1905,-32,-23,13,-2,-61,-1,-45,-21
-19,1490,1,-23,9,-7,-50,-4,-41,-9
-30,765,6,-10,-5,-9,-50,-9,-41,-4
-40,-139,9,-7,5,-7,-35,-4,-15,3
-6,-950,27,-6,8,-16,-16,-8,-12,11
19,-1637,34,-8,2,-30,-12,-13,-38,10
26,-2218,32,-2,5,-35,-7,-15,-12,15
27,-2618,27,-5,0,-38,-12,-12,-13,9
27,-2675,22,10,2,-34,-16,-22,-38,-9
37,-2500,12,16,0,-34,-6,-12,-30,-2
49,-2155,-13,12,-7,-33,-16,5,-19,7
26,-1605,0,6,-11,-29,-26,19,7,5
-6,-1013,13,-4,-16,-28,-30,30,12,12
-15,-305,13,-1,-10,-11,-30,28,20,5
-28,484,-6,15,0,2,-27,19,13,-19
-46,1122,-7,13,-1,17,-21,-2,-4,-49
-44,1344,-31,17,-7,15,6,-22,-17,-69
-36,1203,14,10,-4,14,22,-31,-21,-61
-18,817,33,8,1,28,23,-22,-9,-34
17,122,15,0,-6,16,28,-11,18,-5
19,-681,5,-2,-14,-3,46,16,30,8
1,-1382,-4,-20,-19,-20,57,47,76,-9
12,-1931,-1,-38,-22,-41,27,65,87,-17
47,-2390,2,-35,-21,-47,6,83,83,0
90,-2620,32,-8,-3,-22,8,37,121,-12
79,-2358,7,-3,2,-11,12,21,45,-27
30,-1890,2,-1,22,9,22,11,33,-29
-11,-1255,2,9,38,21,12,-24,8,-41
-16,-562,-18,17,23,12,-15,-28,14,-52
-28,270,-12,26,13,3,-17,-9,19,-58
-44,1098,-18,-3,-3,-2,-26,-7,-29,-86
-50,1674,-37,-1,1,-1,-32,-16,-34,-105
-51,1796,-53,7,-4,-4,-40,-21,-73,-82
-34,1644,-93,12,-17,-18,-42,-22,-51,-42
0,1206,-20,-17,-18,-25,-36,2,30,-7
13,476,0,-14,-15,-17,-17,11,-29,-8
-19,-209,4,-4,-6,-10,-16,3,-95,-48
-58,-807,-14,11,2,-7,-16,-11,-56,-65
-53,-1318,-51,11,10,-7,14,30,127,-28
6,-1689,-9,-6,-6,-19,45,49,173,24
52,-1764,7,-8,-6,-18,41,31,112,30
59,-1631,40,14,11,0,33,28,88,6
41,-1366,45,21,29,5,42,26,47,-31
4,-886,34,21,29,20,30,15,16,-62
-19,-353,29,23,21,21,7,15,6,-64
-15,263,27,21,19,11,-20,2,11,-65
-5,1008,19,-1,13,6,-44,-14,-28,-56
-12,1662,9,-11,1,6,-28,-29,-44,-40
-12,1941,11,-13,-7,14,-10,-30,-30,-8
-30,1783,7,2,-11,27,7,-14,-35,-5
-33,1396,-2,17,-18,35,16,-11,-28,-37
-27,709,-41,28,-16,40,16,2,-11,-50
-9,-145,-34,36,-7,40,27,8,3,-40
7,-909,22,30,-8,28,33,0,1,-7
44,-1542,33,26,-21,12,25,-4,5,9
60,-2090,36,35,-15,-4,1,-3,26,45
66,-2494,42,15,-7,-11,-11,3,-7,83
36,-2555,-14,17,1,-3,21,-7,-30,75
6,-2410,-49,27,-1,4,34,-9,-37,42
-9,-2086,22,2,-11,0,21,-8,-36,0
10,-1526,19,-8,-20,-11,10,-4,-7,-13
27,-922,-9,-7,-19,-18,13,3,28,-21
17,-173,-29,-7,-11,-20,8,14,29,-31
4,656,-58,-1,-3,4,-7,10,4,-36
-12,1281,-140,14,-8,10,-20,-4,-50,-31
-13,1491,-135,0,-10,4,-22,-4,-54,-11
-11,1365,-64,-3,-8,0,-44,-3,-49,12
-16,965,-41,-3,-16,-2,-45,0,-23,25
-20,228,-28,-6,-12,-10,-28,20,-8,38
-6,-527,26,-6,-6,-11,-22,21,-1,50
11,-1145,12,-4,1,-4,-15,17,34,47
-6,-1652,45,-5,3,-4,-3,12,28,41
-15,-2037,32,-4,1,-13,8,15,17,26
4,-2180,47,-12,1,-22,-2,20,4,11
23,-2030,37,-10,3,-12,-4,25,26,13
40,-1725,50,-15,1,-11,-4,31,40,25
46,-1215,55,-13,-4,-2,-6,32,32,35
39,-575,58,2,6,12,5,30,43,37
20,121,23,5,11,7,0,16,9,20
4,965,-79,-3,17,5,-20,-13,-23,6
-22,1760,-48,-21,11,13,-27,-29,-22,12
-39,2262,24,-29,4,11,-33,-46,-15,4
-38,2299,36,-23,1,-2,-25,-52,-4,-28
-31,2069,53,-22,1,-5,-28,-38,-27,-35
-21,1566,58,-14,-1,5,-22,-25,-18,-21
-5,801,56,0,8,10,9,-11,5,-10
1,48,12,-7,15,6,35,0,28,-6
0,-566,24,3,5,6,31,-6,33,-6
7,-1085,64,-2,2,7,27,-1,26,4
39,-1467,64,-3,0,-9,30,17,42,15
30,-1552,51,-8,13,-16,27,26,34,12
17,-1412,49,-21,21,-8,9,19,32,19
2,-1124,32,-24,24,1,26,4,31,34
-5,-606,18,-15,26,11,50,8,66,47
14,-42,20,4,16,10,54,6,43,28
18,628,36,15,15,13,36,-4,-2,3
-6,1395,33,10,24,18,-1,-31,-34,-24
-47,2019,15,17,18,17,-22,-31,-61,-46
-53,2243,5,27,10,14,-22,-24,-43,-45
-47,2087,11,22,3,14,-5,-30,-51,-25
-36,1705,3,8,4,13,-13,-25,-46,-2
-9,1008,9,11,9,0,-14,-14,-10,39
13,186,-43,23,25,-6,-8,9,85,60
21,-569,-30,18,16,-6,10,17,104,57
17,-1200,51,35,35,-1,34,24,136,38
30,-1744,62,44,44,-12,44,33,149,19
23,-2044,29,19,24,-26,47,37,141,11
5,-2008,10,5,18,-12,34,57,131,7
17,-1824,20,10,25,-2,42,77,187,4
-7,-1451,-24,0,13,-5,33,75,158,-11
-38,-886,-33,-5,-7,-1,46,53,60,-38
-31,-335,5,-6,-24,-7,41,42,-19,-31
-32,381,11,13,-14,0,-3,40,27,-49
-8,1208,-8,36,18,19,-15,22,115,-46
11,1791,-77,41,27,27,-19,19,129,-10
20,1914,-88,32,1,29,-32,-2,14,17
-11,1695,-61,22,-41,17,-46,-41,-135,-7
-36,1223,-63,29,-43,24,-28,-45,-147,-41
-26,427,-13,21,-40,16,-13,-31,-99,-34
5,-374,35,7,-41,2,3,9,-57,-17
20,-1028,55,15,-19,7,44,47,42,-4
21,-1605,44,1,-15,4,45,34,50,4
23,-2061,44,-10,-23,-3,35,0,-28,4
23,-2190,47,13,4,1,50,-9,14,1
16,-2071,36,12,22,12,39,-21,7,5
19,-1791,35,17,28,26,38,-31,-20,1
21,-1297,37,21,32,28,17,-38,-61,-19
7,-707,25,27,35,29,-10,-34,-98,-34
-22,-55,7,-9,-4,16,-24,-21,-78,-47
-46,741,-15,-35,-28,10,-41,2,-6,-36
-49,1464,-11,-31,-20,15,-40,13,34,-23
-28,1885,7,0,23,26,-18,23,88,13
-14,1855,3,-5,14,12,-31,-4,28,19
4,1569,-14,-6,-7,-2,-28,-3,-33,-10
20,1001,-70,19,22,-4,-13,23,64,-3
22,204,-19,32,32,-14,8,18,85,11
21,-543,-83,-4,0,-29,3,8,-29,11
38,-1142,-132,-10,0,-35,5,26,-15,43
34,-1655,-28,-14,-2,-25,13,40,28,56
6,-2057,10,-26,-34,-33,26,3,-73,42
2,-2102,-11,-10,-44,-48,11,-20,-118,22
-4,-1912,-23,-18,-45,-36,12,-13,-97,20
-3,-1542,7,-5,-16,-24,-13,0,-37,26
2,-955,-12,9,12,-26,-30,-2,-16,70
-7,-338,12,5,33,-20,-14,-2,36,85
-40,293,25,-1,20,-8,-29,-9,-59,36
-60,1065,11,14,35,2,-36,11,-51,-6
-43,1730,7,24,50,13,-21,33,54,-34
-39,1921,7,3,34,13,-20,24,82,-34
-50,1699,7,-8,15,14,-16,15,50,-46
-64,1231,18,-16,-17,16,-21,-2,-77,-66
-39,460,34,-16,-17,10,18,-13,-115,-67
-2,-411,28,0,-12,2,33,-26,-124,-38
-1,-1117,27,1,5,1,34,-10,-61,-10
18,-1700,41,6,40,-1,41,20,127,-7
48,-2207,39,0,36,-3,27,36,161,38
69,-2475,27,-16,18,-11,6,30,144,77
69,-2443,10,-3,11,-26,-5,13,111,73
30,-2251,-26,7,27,-14,5,10,110,45
11,-1856,-26,10,24,-2,21,3,63,36
10,-1312,16,3,13,6,37,3,6,22
20,-714,13,8,32,7,36,20,42,13
-2,8,-15,10,43,-1,33,11,52,-16
-57,727,-109,9,12,-10,13,-2,-14,-27
-73,1205,-79,-22,-35,-18,-14,-27,-151,-35
-19,1272,-16,-39,-46,-24,-50,-37,-176,-45
34,1023,-4,-31,-22,-28,-44,-28,-105,-30
44,521,9,-5,10,-20,5,1,32,-3
48,-188,22,-5,19,-17,20,7,62,37
32,-942,-4,-15,-8,-17,26,6,4,40
14,-1595,-17,-24,-34,-17,36,2,-94,-6
11,-2054,-11,-19,-19,-21,36,6,-117,-23
25,-2415,0,-15,-5,-18,34,15,-78,0
26,-2490,8,-19,-17,-22,27,8,-83,10
45,-2226,1,-10,9,-17,32,9,28,15
41,-1843,-55,7,25,-3,26,9,100,12
19,-1274,-18,-2,19,1,2,2,35,19
-1,-583,6,-9,7,4,-32,-7,-45,6
-7,146,2,-11,-14,2,-46,-23,-77,-10
-9,1024,-23,0,5,10,-35,-14,-6,-20
-14,1833,0,0,22,9,-35,-5,48,-7
-14,2270,6,4,10,13,-48,-7,18,10
-12,2235,-4,-18,-25,-1,-81,-27,-64,41
-7,1959,-15,-15,-50,-8,-83,-38,-133,67
7,1403,-3,1,-12,-10,-53,-9,-34,53
11,650,46,21,36,-3,-4,13,80,33
-1,-60,43,30,53,0,15,7,69,20
-1,-657,35,-1,25,-6,14,-9,-7,19
14,-1155,36,-4,7,-23,15,0,17,15
7,-1503,0,7,11,-26,9,19,67,16
-12,-1541,-26,-15,5,-12,10,28,36,15
-36,-1383,-5,-34,-24,-18,-16,27,-73,-3
-45,-1025,-5,-18,-25,-27,-16,8,-91,-8
-8,-434,23,-4,5,-19,-4,-6,18,-8
14,187,35,0,22,-10,-22,-24,65,8
7,895,20,8,10,-8,-43,-28,0,19
0,1692,0,-13,5,0,-49,-22,-47,3
6,2339,-21,-7,26,-1,-33,16,30,12
-4,2551,-22,-3,6,5,-21,19,56,-2
-42,2386,-24,-26,-26,0,-40,3,-2,-40
-33,1998,-28,-36,-67,-8,-54,-25,-109,-43
22,1334,-4,-18,-46,-9,-44,-6,10,-10
41,596,-83,0,-10,-22,-22,26,113,-1
54,-27,-82,-7,-32,-27,-21,10,16,6
87,-517,-10,2,-7,-25,-2,-2,25,40
107,-906,8,3,1,-22,4,-1,27,47
88,-1098,5,-12,-15,-27,27,3,-5,38
50,-1022,6,-25,-52,-25,44,-4,-134,22
23,-748,9,-11,-36,-18,44,-12,-135,21
27,-243,20,-14,1,-13,33,-9,-34,10
16,386,18,-10,12,-9,1,-6,49,23
-10,1033,17,-3,24,3,-9,1,94,6
-55,1828,11,16,47,16,-12,8,92,1
-73,2618,2,10,48,23,-13,2,91,17
-41,3130,4,-3,37,34,-15,-9,46,15
-20,3170,4,4,37,38,-8,-16,-17,-21
0,2894,19,34,55,41,14,-6,20,-45
-8,2248,24,21,48,39,51,0,46,-43
-27,1383,9,1,2,24,58,6,-14,-28
-3,605,3,-20,-30,5,43,-7,-94,-14
52,-51,12,-15,-14,0,36,-11,-52,0
51,-638,13,-21,-14,-12,3,-18,-58,13
27,-1056,6,-2,3,-8,3,-8,9,-15
5,-1202,-16,24,30,9,14,1,60,-28
7,-1135,-40,17,17,4,9,9,34,-14
2,-939,-8,-3,-3,-10,-11,3,-57,-21
-11,-482,-9,-26,-19,-7,-16,-22,-122,-38
-23,57,-11,-24,-16,0,-7,-31,-126,-32
-42,678,-9,-14,1,18,16,-26,-93,8
-89,1389,-28,-21,-19,26,9,-37,-150,-16
-127,2017,-47,-19,-36,27,0,-34,-154,-60
-127,2319,-41,-21,-55,24,-27,-36,-192,-76
-94,2227,-31,-13,-54,14,-39,-46,-201,-75
-59,1908,-16,3,-44,9,-31,-30,-144,-68
-8,1240,18,18,-27,7,-22,-5,-78,-49
15,406,33,12,-4,14,5,5,-20,-24
40,-322,48,-7,7,13,22,18,23,-4
42,-936,27,-12,-1,-10,20,23,43,4
56,-1419,0,-9,1,-16,31,26,91,4
71,-1683,-62,-5,19,-14,58,35,160,22
64,-1665,-11,0,17,-30,55,37,147,29
37,-1496,30,10,-5,-30,-7,13,48,6
27,-1100,4,16,5,-12,-18,22,64,4
23,-527,0,37,27,-8,-3,25,112,10
14,44,-6,31,14,-7,-12,23,77,0
-20,716,-40,8,-19,-10,-19,9,-34,-21
-38,1475,-47,6,-20,0,-14,9,-58,-35
26,1296,7,28,27,16,51,55,113,-23
60,490,0,16,-1,11,44,28,62,4
59,-207,15,10,-30,-5,23,1,-36,14
66,-759,20,15,-4,-5,41,17,57,10
68,-1265,26,15,1,2,57,38,114,20
50,-1528,26,17,2,-3,52,19,77,20
15,-1445,6,2,-26,-7,37,-8,-50,6
2,-1167,-38,4,-29,13,12,-8,-89,21
-4,-642,-14,26,-10,23,-6,-4,-34,35
-18,-36,-4,20,-27,12,-27,-11,-70,13
-28,624,-8,-1,-46,-3,-52,-26,-102,-18
-39,1432,-18,-6,-51,0,-62,-29,-99,-34
-60,2202,-24,2,-50,6,-70,-22,-99,-32
-81,2686,-36,4,-46,3,-72,-36,-93,-30
-85,2715,-30,16,-31,11,-53,-18,-36,-20
-71,2447,-22,10,-43,10,-33,-3,-43,-4
-60,1883,-9,-3,-29,3,-31,-4,-53,1
-26,1084,-3,26,30,4,-12,5,94,19
0,333,-31,39,44,5,18,18,157,36
19,-313,-3,37,35,-2,31,25,113,44
32,-897,2,4,-4,-24,26,33,3,43
15,-1328,18,-6,-22,-20,26,35,-45,39
-7,-1476,17,0,-24,-14,34,30,-33,45
0,-1399,10,-10,-21,-27,32,19,-31,19
17,-1151,-7,-14,-6,-30,24,8,-32,10
8,-676,-4,-5,19,-23,12,0,-51,0
-8,-152,-7,-14,19,-23,5,-23,-67,0
-23,436,-9,-9,2,-26,-22,-32,-46,-7
-40,1133,-5,-4,-1,-16,-54,-11,-37,-31
-20,1747,-1,-9,16,-2,-65,-5,-41,-40
0,1964,5,5,22,-5,-64,-13,-63,-37
5,1796,12,25,39,1,-52,-11,12,-27
15,1385,20,37,66,-1,-20,-4,131,-9
17,606,6,31,60,-6,-17,9,165,15
-7,-1094,-12,-18,33,1,3,31,126,71
-8,-1730,4,1,58,1,27,34,155,48
-8,-2293,10,-7,39,-20,15,11,35,32
8,-2634,12,-31,12,-34,-4,-5,-56,55
32,-2625,21,-15,25,-25,16,3,-25,44
26,-2445,14,0,29,-3,31,4,-44,7
13,-2107,1,-7,10,-2,14,2,-81,-15
3,-1565,3,4,11,3,33,12,-25,-6
-22,-985,7,9,20,16,46,19,5,-12
-58,-248,-3,6,15,20,44,15,22,-36
-91,541,-22,-2,8,11,19,20,47,-66
-102,1096,-23,-12,-16,-2,-16,-5,-44,-74
-74,1206,-12,-20,-9,7,-5,-19,-58,-65
-50,1007,-60,-25,-7,15,-4,-21,-50,-58
-35,536,-142,-19,-15,5,-19,-22,-51,-46
-27,-243,-44,-3,-16,-4,0,3,-16,-27
-27,-1023,11,-10,-26,-11,10,12,39,10
-11,-1661,12,-3,-32,-14,-5,9,24,52
-5,-2216,-23,2,-47,-22,7,7,1,88
-8,-2627,-80,-2,-44,-19,10,4,-10,95
-4,-2763,4,-9,-29,-16,-8,0,-7,70
-16,-2611,24,-6,-26,-17,-36,-13,-21,30
-17,-2302,-2,-11,-33,-18,-35,-21,-19,6
-13,-1782,7,-17,-36,-9,-23,-18,21,-3
2,-1137,38,-3,-20,9,-17,-1,37,-10
-10,-442,40,5,-8,24,-12,8,15,-27
-20,405,39,-2,-5,18,-40,5,-25,-46
-13,1220,37,13,-8,13,-63,-13,-59,-64
-14,1720,29,7,-9,21,-63,-24,-61,-72
-15,1768,7,-10,-11,25,-59,-15,-43,-55
-12,1552,4,-23,-15,27,-49,-18,-20,-32
0,681,20,-22,-4,24,-26,-18,5,16
13,-1253,32,-17,14,15,-7,-21,17,38
14,-2229,34,-27,13,5,-4,-14,17,47
22,-2582,-13,-33,24,11,5,-14,16,34
15,-2840,36,-14,37,29,11,-4,5,-14
10,-2957,62,2,32,47,34,-2,-18,-40
-3,-2727,31,3,28,47,59,12,-8,-30
6,-2313,19,-7,24,30,57,40,15,-19
-3,-1752,18,-6,28,18,56,34,18,-6
-4,-994,-21,4,18,16,53,23,13,1
3,-178,-13,2,14,22,36,-1,12,27
7,703,14,-7,12,25,-6,-30,18,26
6,1662,19,0,0,15,-40,-35,28,1
7,2459,22,9,-2,12,-17,-39,7,-13
1,2797,17,29,7,20,1,-51,-22,-33
12,2716,10,17,3,18,5,-59,-39,-21
38,2382,-21,11,-3,19,15,-50,-25,13
43,1693,-22,11,0,25,6,-37,-21,23
46,887,17,12,5,9,10,-38,-21,39
26,193,12,11,5,-5,18,-33,-27,23
-15,-378,4,9,7,-7,31,-17,4,6
-4,-865,-2,7,1,-10,36,6,56,34
25,-1127,-4,-5,-4,-18,42,22,41,50
14,-1090,12,-17,4,-18,54,19,75,32
-29,-869,12,5,23,-9,58,19,104,13
-63,-486,2,15,13,10,45,13,55,2
-51,75,-3,9,1,5,5,0,-42,-3
-31,677,-4,1,5,-8,-40,-16,-71,-8
-47,1422,-59,-2,2,-4,-53,-28,-52,-24
-67,2173,-66,-4,-3,-1,-69,-34,-47,-53
-52,2668,-46,-18,0,0,-75,-21,-19,-63
11,2726,-145,-28,-8,-15,-63,-1,28,-55
53,2506,-153,-8,0,-14,-53,4,32,-60
41,1984,-17,5,14,7,-20,8,32,-51
59,1145,40,9,20,10,-4,7,40,-25
63,341,60,15,5,13,-9,11,18,-9
65,-327,62,13,3,9,-11,23,15,1
65,-932,67,7,1,5,-8,37,29,12
80,-1361,32,16,-10,0,0,54,29,31
70,-1486,-59,4,-14,-3,4,51,49,38
44,-1382,-4,-4,-20,-5,12,34,81,18
36,-1116,35,-5,-17,-7,10,16,56,14
37,-644,33,-9,-18,-14,-3,13,50,23
41,-117,13,-23,-36,-9,-25,11,44,33
17,505,11,-17,-43,8,-29,12,22,3
1,1259,4,-6,-21,17,-29,8,29,-18
5,1938,5,7,-8,26,-50,-1,-18,-24
-2,2254,20,11,-5,26,-50,-5,-26,-41
10,2132,28,19,3,36,-50,7,-14,-51
12,1786,30,19,9,39,-22,15,0,-37
11,1149,41,10,5,36,25,3,-12,-28
21,309,47,10,9,30,38,-16,-26,-9
36,-454,50,16,18,15,45,-26,-18,0
37,-1090,51,14,27,2,17,-16,-25,6
22,-1638,33,1,26,-1,5,8,0,29
18,-2030,-32,-4,9,-12,5,18,29,35
17,-2084,-129,-15,11,-11,19,12,11,10
4,-1932,-103,-8,30,-5,15,-8,-21,-20
-9,-1600,8,11,41,7,-5,-16,-83,-28
-13,-1069,26,12,36,5,-14,-18,-96,-22
-23,-489,30,3,24,5,2,-20,-84,-17
-36,196,-2,-9,0,2,11,-17,-67,-20
-55,940,-11,-33,-15,-5,6,15,38,-18
-66,1533,-17,-50,-27,-5,0,53,132,-3
-48,1709,-10,-28,-21,2,1,52,106,-1
-37,1523,0,-8,-7,17,8,27,61,23
-24,1100,7,1,0,20,17,21,43,77
7,384,-8,-5,-1,8,-2,25,46,77
35,-380,-82,-13,-5,-3,-10,15,69,60
45,-1019,-97,-10,2,-17,-8,2,66,51
49,-1556,-2,-12,-1,-24,-27,-4,74,46
52,-1994,41,-14,-5,-36,-23,8,92,17
48,-2181,34,-19,1,-41,-7,25,80,-7
17,-2080,31,-4,1,-33,3,40,69,-36
2,-1769,18,19,11,-2,31,43,95,-48
-7,-1250,-72,5,-2,3,53,23,45,-46
-11,-627,-17,1,1,8,40,11,30,-13
-17,31,16,0,3,-8,13,8,-11,30
-40,863,7,7,5,-20,1,10,30,23
-68,1630,9,-1,-9,-3,9,-4,-57,-33
-73,2160,9,-9,10,20,3,-18,-70,-55
-66,2252,35,12,40,38,11,-4,25,-66
-63,2060,72,26,57,40,2,-1,77,-65
-47,1585,61,15,46,29,15,2,93,-31
-21,813,42,15,41,14,32,19,130,-10
15,64,22,1,28,2,40,19,73,0
24,-552,-54,-2,20,7,34,2,-11,12
8,-1061,-60,0,27,14,37,17,-49,2
18,-1468,-121,-13,23,0,45,30,4,35
27,-1562,-62,-31,8,-14,29,23,38,104
34,-1383,9,-44,10,-24,18,12,35,160
38,-1060,23,-35,9,-14,-13,-9,-23,110
29,-533,33,-9,13,-9,-32,-31,-48,36
-3,47,38,2,30,1,-17,-34,-80,-8
-52,717,18,0,30,13,-34,-11,-91,-18
-64,1528,13,-13,36,19,-48,6,-35,0
-36,2244,-41,-19,35,17,-59,-1,1,16
-12,2580,-143,-35,-2,7,-73,-32,-58,11
0,2545,-110,-21,3,6,-67,-26,-67,17
-9,2279,-10,-29,3,5,-48,-13,-73,27
-16,1674,26,-19,10,4,-23,-1,-35,9
-5,900,52,5,45,8,4,24,74,3
-11,186,43,4,27,7,15,25,51,28
-14,-417,-26,8,26,5,10,22,80,36
-30,-932,-96,9,12,3,21,14,40,21
-16,-1232,-107,-18,-4,-1,20,18,11,14
-25,-1221,-80,5,23,2,10,29,54,25
-28,-1062,30,20,25,-8,11,5,-8,1
-7,-693,74,24,36,-3,13,11,24,-13
-16,-170,56,7,5,0,-4,3,-62,-24
-18,404,63,-1,5,5,-10,-9,-118,-16
-15,1110,60,3,2,4,-6,-17,-118,-6
-18,1856,43,4,-10,-7,-10,-26,-113,-5
-30,2380,37,21,-17,3,18,-24,-76,-7
-49,2427,39,19,-16,14,14,-27,-73,-25
-45,2180,34,15,-20,6,-12,-27,-79,-32
-13,1715,28,12,-24,4,-4,-7,-53,-5
23,884,29,14,-33,-5,-5,-1,-40,15
39,16,47,26,-27,-16,-7,-3,-50,16
40,-706,49,0,-24,-18,2,10,-20,13
26,-1315,38,-19,-23,-29,11,20,-3,21
13,-1818,27,-18,-25,-29,24,34,3,30
20,-2062,7,-28,-30,-31,20,12,-9,30
14,-1995,-9,-41,-33,-27,10,2,-21,17
2,-1774,0,-33,-18,-17,21,-2,-24,23
0,-1341,7,-18,-10,-13,10,-1,-31,23
2,-816,4,-20,-16,-11,-12,4,-42,25
-10,-239,-4,-24,-17,-9,-18,7,-19,17
-17,529,-16,-28,-15,0,-24,4,16,17
-20,1284,-40,-26,-7,14,-32,-16,3,14
-13,1735,-76,-16,7,17,-22,-49,-14,0
2,1740,-36,-6,0,14,-3,-74,-14,-8
-1,1486,-78,-3,-6,13,31,-64,17,-3
-20,909,-43,-7,-2,13,48,-42,32,6
-9,69,51,-4,1,6,54,-27,-9,8
5,-680,37,-1,13,9,57,-14,-15,31
18,-1298,-32,-2,12,12,45,15,22,65
23,-1824,30,-13,1,4,43,28,23,73
36,-2204,52,-4,9,-5,55,18,43,74
37,-2278,53,-7,4,-12,25,4,0,73
51,-2115,41,-5,-4,-19,6,12,3,73
48,-1809,32,-8,-7,-22,4,15,34,68
28,-1283,34,-14,-8,-20,15,-9,43,41
36,-697,24,-16,-13,0,22,-10,14,21
29,-45,18,-20,-21,16,-3,-8,-15,7
13,737,22,-11,-9,18,-32,-26,-56,-6
-13,1409,24,-7,-15,12,-41,-37,-91,-29
-46,1659,18,-7,-26,-2,-42,-23,-90,-30
-81,1507,23,-2,-31,0,-32,-15,-55,-26
-90,1135,18,-10,-39,-4,-25,9,-7,-25
-57,428,7,-20,-59,-12,-14,14,-12,-1
-18,-384,1,-15,-60,-26,9,13,-25,3
26,-1076,8,-15,-54,-27,22,20,5,11
27,-1659,27,-7,-39,-19,11,33,24,17
0,-2109,10,15,-15,-7,20,49,77,5
28,-2334,-27,18,-15,-4,31,55,109,3
78,-2238,17,17,-26,-5,37,44,142,28
82,-1976,48,15,-39,-5,28,17,96,5
46,-1523,41,21,-35,9,26,1,16,-16
8,-888,19,11,-25,5,21,-8,-20,-26
-8,-242,6,2,-28,6,12,-3,-24,-37
-15,576,0,-10,-29,10,0,-14,-38,-40
-21,1459,2,-11,-22,3,-33,-27,-44,-34
-18,2087,-6,-8,-21,0,-61,-27,-39,-37
-23,2285,-2,-2,-1,13,-42,-29,-28,-38
-23,2162,11,21,13,22,-8,-32,-29,-31
0,1759,11,22,9,12,-8,-21,-36,10
22,1030,-2,17,0,2,-1,-9,-12,65
30,289,-46,2,4,-1,2,5,24,70
32,-335,-100,-11,4,-13,-1,8,16,54
25,-845,-20,-14,3,-20,8,9,31,27
19,-1233,-9,-12,7,-21,4,19,84,19
20,-1338,11,-9,5,-27,-18,36,114,8
20,-1177,11,-3,11,-13,15,43,102,4
4,-880,-8,1,17,0,30,43,66,-14
-2,-349,-3,13,9,13,36,37,39,-27
0,290,12,6,-6,11,27,19,-8,-35
-18,970,15,-4,-14,5,4,6,-17,-33
-33,1778,21,-7,-12,1,-10,-12,1,-45
-55,2527,7,7,-13,-3,-38,-23,-16,-52
-56,2938,-67,0,-8,5,-74,-11,-46,-43
-51,2906,-27,-2,-3,14,-55,-1,-43,-40
-25,2620,3,6,-8,10,-28,-5,-56,-36
1,1989,-40,9,-10,-1,-6,-6,-28,-14
22,1144,2,17,9,-3,-2,1,75,7
24,352,39,31,18,-3,5,9,78,5
20,-369,33,3,-24,-11,3,1,-15,20
20,-963,28,-15,-34,-10,32,-2,-18,36
6,-1394,-8,-14,-24,-17,51,-4,1,28
11,-1520,-60,2,-17,-25,34,-19,19,22
13,-1419,10,1,-28,-28,6,-24,-6,37
5,-1142,17,-9,-33,-23,-7,-29,0,26
0,-674,-54,-4,-26,-12,11,-34,-5,-10
-8,-148,-47,9,-12,-1,16,-24,-4,-43
-17,520,-38,19,-17,2,-13,-36,-44,-54
-23,1291,11,8,-21,11,-37,-30,-35,-24
-24,1920,25,-3,-11,14,-13,-17,-7,1
-32,2127,18,3,1,12,-21,-23,-27,-25
-35,1971,20,26,23,10,-39,-30,-38,-43
-16,1597,27,27,17,15,-48,-17,-41,-43
4,890,31,17,11,12,-20,-5,0,-34
17,74,35,12,-1,5,-5,-3,17,-4
19,-644,33,5,0,0,0,5,65,34
0,-1279,34,4,15,-5,-1,14,61,35
20,-1816,30,16,17,-13,35,21,22,31
40,-2124,-7,5,22,-19,41,19,39,44
29,-2115,-84,10,26,-21,19,-3,37,30
-11,-1985,-92,18,40,-19,12,-13,2,2
-39,-1642,-85,10,38,-13,-12,-11,4,-1
-50,-1125,6,9,26,-29,-31,10,-8,-24
-61,-589,27,5,22,-9,-5,15,15,-57
-58,81,-34,15,14,9,13,-12,-7,-53
-55,790,-78,9,6,4,-6,-36,-17,-60
-48,1264,-10,5,0,0,-46,-47,-48,-55
-57,1285,-54,2,0,-2,-44,-44,-60,-62
-62,1031,-60,-1,16,6,-24,-34,-15,-88
-38,525,-7,-5,17,8,-18,-8,13,-52
-20,-277,-88,1,11,-4,15,4,8,-8
-11,-1057,-54,0,3,-14,17,6,51,10
5,-1708,36,-1,-12,-30,-5,7,65,9
3,-2230,43,-19,-13,-35,-14,-4,61,1
20,-2581,37,-18,-9,-37,-13,-16,5,-14
47,-2642,20,-14,-4,-15,-12,-15,-16,-36
41,-2449,2,-3,-5,-2,3,-3,-15,-39
6,-2121,52,3,1,-4,2,4,-13,-45
-18,-1564,53,-1,0,2,1,3,-51,-49
-2,-876,44,-14,-5,-1,-15,-20,-67,-28
7,-133,36,-11,-3,-5,-18,-33,-29,-11
-6,748,30,-4,-4,-3,-26,-33,0,-24
-10,1554,0,-12,-18,1,-37,-21,-14,-32
-7,2036,-92,-12,-29,6,-42,-11,-22,-21
-20,2081,-61,-2,-28,16,-37,4,-23,-29
-13,1859,-24,0,-20,13,-36,-6,-41,-26
16,1311,-22,-5,-15,20,-22,-2,-14,2
20,612,13,-4,-7,9,4,5,27,35
35,-10,20,16,8,15,10,9,-12,10
33,-534,-10,13,4,20,7,18,-46,-10
47,-948,32,14,7,17,9,20,-59,-22
47,-1183,77,40,9,13,7,-7,-87,-24
32,-1123,53,39,-2,9,0,-3,-40,5
20,-857,35,9,-14,7,17,21,99,60
1,-397,30,-1,-31,12,24,55,178,64
2,238,29,13,-34,11,9,76,159,28
18,923,8,4,-39,13,-6,57,88,17
0,1725,-3,-8,-30,13,-8,31,40,15
-23,2596,-12,-14,-24,15,-22,20,-42,1
-8,3287,-29,2,-18,24,-29,8,-62,-16
21,3545,-113,12,-13,30,-34,3,-58,-12
41,3427,-163,19,-2,32,-25,9,-54,-1
45,3034,-62,39,6,25,-26,9,-51,0
42,2326,30,26,0,6,-17,14,-36,16
41,1532,43,-1,-12,-22,10,20,15,32
49,834,38,-12,-27,-21,43,23,36,44
66,253,33,0,-20,-18,49,31,22,50
77,-193,36,20,-3,-18,49,27,21,39
60,-441,36,25,12,-18,45,26,11,31
34,-424,28,8,18,-11,34,17,6,7
27,-246,30,19,30,-1,14,9,5,-12
22,144,41,28,27,9,-12,11,-15,-2
3,653,31,29,26,21,0,6,-29,23
-19,1187,19,19,31,14,-7,-14,-45,3
-57,1854,-35,8,31,11,-18,-19,-61,-14
-71,2519,-74,5,18,11,-28,-22,-77,-14
-72,2922,-93,2,1,8,-36,-23,-85,-26
-48,2853,-25,6,6,9,-35,-24,-39,-50
-25,2538,28,9,23,9,-14,-11,11,-47
5,1968,43,10,24,4,30,-3,14,-23
10,1114,36,8,18,0,46,3,11,9
10,317,42,23,24,3,30,6,9,36
16,-381,30,0,15,5,40,8,-4,37
13,-974,-42,-12,9,-3,29,13,-3,37
5,-1389,-33,-16,5,-25,10,13,-3,24
9,-1494,38,-23,3,-16,0,8,-8,25
15,-1388,0,-11,7,-3,23,0,-10,21
25,-1111,-60,-9,24,-1,52,-4,-22,15
27,-590,-47,-8,16,2,54,-4,-25,20
21,-1,-44,-16,4,10,35,-7,-34,20
-11,681,22,-16,9,7,-16,-17,-37,8
-54,1463,17,-19,23,4,-46,-10,-47,-12
-62,2138,2,-17,17,4,-43,-7,-45,-48
-63,2445,8,-14,10,-3,-41,-24,-38,-71
-49,2357,19,-8,6,-8,-13,-19,-40,-60
-11,2075,27,1,24,-16,26,13,20,-34
-2,1478,36,9,23,-24,35,18,70,-17
2,849,31,8,-14,-27,21,8,2,-8
38,572,-14,11,-32,-25,37,20,-8,-4
46,104,-88,-2,-33,-33,14,17,-5,-8
33,-461,-9,-9,-26,-27,-3,18,2,-4
22,-888,45,-1,-16,-16,11,18,-5,4
18,-977,-23,-8,-8,-19,3,15,4,8
9,-855,0,-13,-12,-19,-9,7,6,6
5,-544,49,-14,-12,-22,-2,-5,0,3
14,-59,51,-11,-5,-27,-16,-3,12,22
25,444,46,-6,5,-21,-31,0,-5,39
3,1083,36,-12,2,-4,-33,-18,-17,8
-21,1741,19,-14,1,-2,-42,-42,-34,-33
-18,2199,2,-22,4,-10,-39,-50,-31,-44
2,2224,21,-16,2,-18,-32,-48,-33,-23
24,1924,30,-14,0,-8,-23,-31,-22,-14
36,1381,28,-4,12,-9,-20,-19,21,-5
26,497,29,4,19,-6,8,-10,23,2
-3,-432,31,-1,22,0,15,-7,37,12
-5,-1232,30,-2,19,2,14,-10,48,29
13,-1914,27,-5,13,-20,23,-12,40,33
27,-2478,-16,-8,6,-24,31,-9,35,21
23,-2768,-39,-5,7,-13,52,2,9,5
4,-2753,-6,-2,19,-1,57,3,32,1
17,-2586,15,-2,4,-7,19,-4,22,2
28,-2187,22,1,-3,-8,-5,-20,29,-10
23,-1683,-48,8,0,0,-19,-20,11,-12
-9,-1140,-35,12,1,11,-24,-35,-35,-11
-47,-443,25,20,7,20,-8,-33,-31,-12
-44,215,21,4,-2,18,-13,-31,-34,-14
-18,598,6,0,-12,17,-24,-35,-38,-7
-5,530,11,4,-3,21,-24,-24,-26,21
12,221,18,-1,6,15,-3,-4,-5,60
17,-377,20,0,-5,11,15,7,7,68
-1,-1222,18,-9,-5,2,30,5,0,33
-10,-1977,14,-7,5,11,35,8,11,20
-29,-2611,-35,-10,5,14,32,3,13,13
-19,-3113,-9,-19,4,0,31,24,31,26
23,-3483,18,-11,-11,-19,29,44,59,73
54,-3523,20,-15,-13,-21,6,56,77,101
40,-3334,23,-6,-1,-9,-5,51,70,102
25,-2979,20,-1,5,-2,-7,33,19,85
-7,-2388,-4,-1,12,2,0,9,-14,43
-24,-1736,-115,2,12,9,-14,-20,-84,11
-11,-988,-132,12,8,23,-21,-44,-108,-16
-31,-110,-73,7,11,29,-11,-62,-106,-31
-64,648,-10,-10,10,24,-36,-62,-77,-35
-66,1013,14,-14,0,16,-24,-32,9,-23
-20,974,31,3,-3,18,-8,21,139,22
2,701,31,25,0,29,0,47,136,24
10,114,32,6,19,26,36,42,100,7
30,-573,21,-1,15,13,48,33,112,-4
35,-1169,-49,-16,-8,-5,39,28,119,12
22,-1667,-33,-14,-14,-9,6,13,57,6
3,-2039,19,9,-10,1,7,10,54,7
-7,-2176,21,10,16,3,5,10,80,21
-14,-2028,27,23,23,19,0,7,74,20
-1,-1685,30,19,17,3,-4,20,76,19
53,-1137,5,10,16,-18,-27,10,58,36
64,-477,-18,26,16,-18,-40,-9,-1,33
36,203,-8,5,22,-12,-42,-8,-5,14
13,1036,-1,1,18,-18,-47,-8,-20,-4
15,1866,4,4,9,-9,-39,-4,-12,3
12,2461,0,10,6,-5,-19,-16,-35,-13
-16,2611,-6,11,17,12,7,-3,-34,-28
-40,2450,-2,19,27,22,-11,6,-44,-38
-35,2045,-15,5,20,24,-20,-1,-72,-44
-4,1354,13,9,8,10,-24,-4,-60,-29
0,624,23,13,15,-8,-22,3,-38,-4
-5,5,33,9,20,-9,0,7,-5,18
26,-513,36,14,15,4,5,2,-2,31
49,-948,30,18,7,-1,16,10,40,34
19,-1112,16,8,2,-23,10,20,61,24
-23,-989,-1,1,-3,-24,20,18,67,14
-18,-705,1,5,-6,-9,15,15,31,9
-24,-201,-8,9,-13,-7,8,2,-18,0
-18,384,-27,18,-1,-9,33,-8,-2,10
-16,1053,-36,18,-11,-7,45,-20,-42,49
-33,1851,-19,2,-21,-3,27,-30,-68,34
-52,2558,-20,1,-27,-6,18,-31,-67,3
-57,2934,-28,4,-22,-8,9,-28,-44,-7
-60,2851,-23,0,-9,0,11,-33,-23,-21
-58,2543,-20,-2,3,5,12,-21,-21,-34
-40,1930,0,10,7,-4,24,-3,17,-33
-16,1074,16,15,9,-18,37,2,25,-29
3,287,1,4,7,-17,33,8,37,-5
16,-400,-80,9,17,-16,33,5,16,-7
16,-998,-136,9,19,-23,5,13,19,-3
10,-1402,-108,10,25,-26,1,13,35,-4
17,-1500,2,25,21,-27,-7,-2,-13,0
29,-1393,54,10,27,-27,-15,-12,-29,3
12,-1121,47,1,30,-15,-12,-13,-13,0
3,-671,-14,-10,26,4,-14,0,-4,-7
-11,-153,-28,-5,29,-8,-4,9,9,-20
-17,468,4,-14,9,-22,-26,7,28,-33
-20,1159,7,-20,-7,-5,-42,3,-6,-33
-19,1709,9,-26,-8,7,-47,-15,-30,-39
0,1872,11,-23,-3,2,-44,-22,-33,-42
9,1261,5,-24,0,-5,-20,27,78,-9
-16,415,21,-15,24,11,-9,26,82,-11
-34,-526,33,-28,14,4,6,20,47,-26
-31,-1312,35,-1,29,-2,18,22,114,-20
-11,-1996,24,0,40,5,24,22,125,-13
14,-2559,25,-10,45,14,31,19,135,-24
29,-2867,12,6,50,10,49,13,124,-30
19,-2889,45,21,52,13,48,17,106,-41
17,-2752,42,25,43,14,35,23,79,-35
35,-2386,37,13,39,4,47,25,65,-14
49,-1833,34,0,28,-13,41,22,74,0
60,-1262,26,-7,3,-10,-8,12,27,-3
53,-532,14,-15,-22,3,-30,-7,-39,-8
33,247,9,14,14,10,-25,5,43,-8
-11,769,8,27,30,16,-30,7,35,-27
-43,814,-16,29,27,20,-26,0,-17,-54
-63,569,-79,8,0,27,-21,-1,-73,-65
-49,82,-32,8,-27,22,6,-2,-101,-58
-8,-674,15,19,-34,8,35,4,-96,-34
28,-1376,30,23,-6,0,33,8,24,-8
62,-1955,50,33,4,3,29,14,95,11
52,-2448,51,21,-4,6,28,22,95,30
26,-2801,48,23,0,2,45,23,91,38
9,-2881,33,27,5,0,62,20,36,28
6,-2689,16,7,-20,8,50,16,-12,25
20,-2284,18,16,-8,19,48,19,35,20
11,-1708,10,4,-8,15,35,31,73,13
-9,-1064,0,-8,-6,2,1,22,84,-7
-7,-326,-4,-11,-7,5,-22,20,12,-15
-17,513,-11,-20,-33,-1,-41,-4,-97,-34
-38,1295,-48,-21,-48,3,-61,-17,-120,-53
-39,1765,-58,-33,-59,-1,-69,-32,-122,-42
-33,1836,-59,-40,-69,-6,-64,-25,-161,-23
-22,1653,-143,-31,-60,-18,-51,1,-161,-15
-1,1147,-141,-22,-43,-26,-21,13,-144,6
16,475,-86,-16,-38,-17,-7,24,-103,25
35,-86,-106,0,-20,-17,-10,41,-14,39
52,-556,-8,-3,-14,-20,5,37,19,48
72,-910,24,-13,-34,-15,4,11,-19,70
95,-1053,24,-2,-18,-18,4,14,54,77
105,-916,28,-4,0,-32,10,18,89,66
84,-618,36,-9,1,-31,2,24,103,75
52,-133,28,-18,-4,-24,-22,15,131,88
29,514,22,-24,-13,-15,-37,20,56,102
25,1181,1,-33,-20,-17,-50,18,13,114
18,1965,-10,-39,-20,-8,-53,-11,-16,99
-1,2805,2,-21,0,3,-52,-25,-19,37
-34,3418,18,1,8,16,-46,-37,-32,-19
-61,3580,22,19,21,40,0,-35,-65,-58
-80,3383,36,50,56,57,45,-20,-7,-88
-77,2907,13,52,46,51,47,-19,-33,-73
-27,2139,3,54,38,32,61,-14,-25,-21
-9,1303,8,33,5,9,50,-28,-65,6
-2,558,-5,6,-8,2,32,-33,-105,6
0,-92,2,10,8,5,33,-5,-4,-22
-2,-606,7,-7,2,4,39,11,30,-37
1,-849,15,3,16,18,49,6,33,-44
-11,-877,21,5,34,18,40,-1,26,-53
-6,-740,17,4,37,18,44,-6,98,-37
-2,-365,-18,10,24,36,40,0,111,-14
-35,97,-23,-20,-22,27,11,-6,-8,-13
-59,595,-22,-27,-43,20,-30,-9,-72,13
-42,1264,-36,-28,-54,18,-53,-1,-116,22
-51,1913,-33,-31,-33,12,-57,0,-77,0
-41,2282,-33,-35,-7,5,-58,-4,-34,-18
-21,2206,-87,-16,18,9,-46,10,47,-22
1,1848,-139,-7,9,15,-31,17,41,-4
26,1180,-36,-6,-11,11,-15,-2,-64,12
33,245,24,1,-4,5,22,-2,-62,18
47,-628,44,20,19,7,35,25,28,22
44,-1377,62,10,15,-6,6,22,23,19
46,-2016,59,0,-6,-33,-10,15,-31,13
25,-2505,32,-16,-44,-40,-23,-4,-141,11
18,-2641,-3,-5,-39,-37,-9,0,-106,18
30,-2485,-14,13,11,-25,13,0,32,12
13,-2163,29,7,22,-16,16,-5,71,12
-1,-1635,3,-1,-10,-10,7,-2,-1,19
-40,-1036,-97,-2,-44,-13,7,-1,-81,32
-92,-324,-92,9,-40,1,10,14,-53,8
-119,544,12,26,-7,21,8,20,-6,-12
-112,1305,25,27,18,23,-11,1,-18,-44
-92,1679,31,17,26,15,-11,-18,-24,-68
-75,1646,30,5,22,17,0,-14,16,-79
-57,1372,30,9,9,17,9,-12,3,-103
4,782,46,10,8,14,-6,-3,14,-111
50,21,50,-1,0,-3,-25,-5,-41,-99
47,-663,19,10,6,-10,-9,7,26,-76
49,-1228,-82,17,18,-20,-2,23,72,-54
73,-1692,-35,16,14,-38,8,35,76,-26
75,-1990,56,26,18,-39,2,32,84,-16
66,-1993,29,25,11,-32,0,15,49,-15
46,-1851,-22,-7,-31,-31,0,-2,-88,-3
29,-1492,-45,-17,-47,-33,0,-21,-132,0
9,-937,-32,2,-16,-17,-1,-5,-48,1
-15,-334,47,14,26,-2,19,25,66,-12
-47,386,47,0,10,-4,18,5,1,-16
-32,1153,33,-1,-1,0,-15,-11,-3,0
-28,1737,29,-7,-4,9,-39,-25,-4,6
-37,1840,8,-19,-36,7,-42,-44,-160,9
-51,1627,5,-31,-43,1,-15,-49,-176,1
-41,1197,7,-29,-37,1,13,-34,-124,14
-40,455,3,-20,-27,6,26,-26,-75,32
-31,-331,6,-20,-37,4,32,-39,-94,54
-11,-946,16,-12,-6,3,30,-38,-24,71
17,-1469,33,-2,6,-1,38,-24,46,83
17,-1914,25,-12,-25,-25,28,-46,-48,71
12,-2071,14,-25,-38,-21,2,-49,-95,52
18,-1955,21,-6,-14,-16,-7,-17,-45,53
51,-1682,36,9,12,-22,0,2,39,51
49,-1225,-5,13,13,-8,-11,-6,7,21
27,-680,-9,11,-11,0,-24,-3,-23,9
1,-85,8,3,-18,2,-34,-11,-40,-6
-13,678,21,0,9,11,-10,-5,46,10
-12,1393,14,9,30,4,8,3,110,23
-20,1756,-39,23,24,5,-7,-10,72,12
-36,1677,-43,-4,-13,-6,-2,-28,-40,-2
-12,1370,1,-5,-2,-10,2,-30,-21,4
-15,751,30,32,26,-3,25,-7,83,-3
-31,-104,18,30,15,-6,25,0,105,-7
0,-882,-39,9,-21,-23,18,-23,15,-8
25,-1578,-19,-12,-41,-27,21,-15,-73,13
33,-2156,5,-13,-35,-24,6,0,-81,22
31,-2560,5,-8,-46,-16,-8,0,-91,22
31,-2644,8,-3,-27,0,-2,9,-36,43
23,-2527,5,-9,-19,-1,-10,1,-45,46
4,-2271,1,-13,-20,-8,-29,-6,-66,27
26,-1758,-1,1,21,5,-32,13,37,32
39,-1183,3,19,33,9,-29,16,103,37
23,-497,6,17,21,6,-35,15,69,3
0,252,-1,14,10,14,-18,17,27,-43
-21,920,-1,20,17,14,15,5,50,-68
-27,1208,-3,19,15,16,20,7,72,-53
-49,1072,-18,-9,-11,17,5,8,22,-17
-44,722,-20,0,2,10,5,12,43,3
-21,-96,-4,11,21,10,23,15,95,2
14,-1537,-7,11,0,15,27,14,41,0
22,-2441,-44,-8,-36,9,0,0,-82,-3
13,-2887,-58,-11,-26,5,-8,-7,-68,-21
22,-3218,20,-2,-2,12,1,19,18,-6
19,-3372,-13,-2,11,14,8,39,81,0
22,-3199,0,-15,13,9,6,20,49,1
12,-2846,6,-21,-17,-1,-5,-1,-74,3
-3,-2324,-82,-40,-46,-16,-23,0,-106,8
-15,-1626,-98,-45,-45,-8,-37,-6,-110,7
1,-875,-51,-34,-28,0,-35,-18,-88,18
7,41,3,-31,-18,-4,0,-10,-52,3
-15,956,19,-37,-42,14,-4,-25,-160,-16
-27,1665,14,-35,-46,4,-6,-25,-162,-38
-16,1941,9,-29,-45,0,-20,-11,-129,-32
-11,1887,4,-16,-2,10,3,12,-15,-12
2,1581,13,2,40,26,15,53,167,37
17,957,16,0,40,28,7,60,237,68
6,313,20,0,25,31,18,41,152,46
-3,-218,20,-6,15,18,19,35,93,35
-3,-617,31,11,37,4,14,33,134,11
-6,-892,35,18,61,3,16,21,108,-35
-6,-942,25,0,42,-5,6,4,28,-33
11,-766,1,-22,11,-8,-16,-4,-58,-22
3,131,20,8,17,6,-15,16,-16,17
-5,806,31,19,51,17,-3,42,95,32
3,1503,21,22,59,27,0,38,93,25
4,2344,22,20,42,27,-24,-9,19,2
13,3130,15,-11,0,10,-45,-48,-98,-7
19,3584,-8,-14,-3,10,-50,-40,-116,-15
6,3571,-75,-14,5,17,-35,-26,-108,-24
-28,3273,-26,-16,-1,10,-22,-41,-149,-37
-21,2693,26,-12,-2,2,-10,-38,-130,-21
5,1893,31,-5,1,0,-10,-38,-50,1
13,1131,28,2,20,4,-2,-28,-14,2
44,486,31,25,34,3,43,-10,32,-10
62,-38,-46,22,28,6,66,1,85,-13
63,-390,-29,-1,28,-1,55,15,59,16
33,-494,22,-20,14,-7,33,25,-14,33
6,-391,7,-14,18,2,41,14,-19,-12
0,-96,-1,-22,18,3,44,0,-38,-31
14,429,-12,0,31,15,43,8,12,-31
19,1000,19,1,40,17,48,20,68,-41
6,1683,20,-5,34,19,33,15,65,-50
-5,2436,10,-12,10,10,11,-10,-34,-41
-11,3031,-3,-28,1,-3,3,-20,-42,-29
-8,3226,-30,-13,22,3,11,-18,76,-30
8,3027,-59,-3,20,6,16,-1,110,-25
15,2575,-34,-10,6,8,-4,-2,35,-16
13,1785,-40,-10,3,4,-30,-18,6,-8
22,910,28,4,13,12,-19,-20,78,-1
30,151,37,15,4,11,-22,-3,91,17
43,-519,38,12,4,-3,0,7,41,21
28,-1097,5,2,3,-11,27,3,-37,2
25,-1404,27,19,30,6,43,12,8,-17
43,-1429,56,32,34,20,48,20,49,-22
58,-1298,47,13,15,25,25,7,44,-16
43,-962,26,8,2,15,4,-7,-14,-8
28,-483,9,-3,-29,-2,-9,-9,-52,14
-2,34,-2,-16,-39,-13,-6,-8,-51,53
-42,720,-7,-5,-8,1,-4,3,8,63
-91,1397,-13,0,8,16,12,17,51,16
-85,1824,-24,-5,0,16,4,8,30,-4
-60,1834,-16,2,5,8,-29,0,0,-5
-55,1552,36,18,32,17,-40,5,53,-16
-67,979,39,9,23,17,-30,8,39,-13
-47,123,27,-7,0,2,-25,-5,-33,-15
-26,-680,28,14,2,-3,-30,0,-33,-26
-17,-1357,26,15,4,-12,-25,1,-19,-17
-2,-1907,26,3,-10,-15,-18,0,-53,6
10,-2302,21,10,-20,-9,-22,3,-60,54
28,-2414,9,12,-1,-9,6,15,11,92
24,-2278,6,-5,-2,-6,23,11,-5,94
21,-2012,5,-32,-41,-11,12,-4,-61,79
19,-1546,-15,-43,-59,-17,-1,-21,-112,66
1,-980,-33,-40,-56,-16,-38,-23,-128,49
-26,-329,-32,-22,-32,-3,-47,-8,-62,8
-61,431,-27,-17,-26,4,-48,-13,-58,-33
-80,1120,-8,-12,-2,5,-52,-16,-56,-53
-83,1466,1,3,20,0,-38,1,40,-41
-80,1365,-12,3,17,-6,-30,11,52,-18
-61,1014,-19,-16,-16,-3,-27,10,-39,-12
-39,332,-12,-12,-27,-8,-2,4,-75,0
-16,-504,-7,6,-14,-15,17,-6,-55,15
10,-1184,-4,34,16,-1,29,20,65,26
13,-1733,19,27,37,-6,31,30,111,39
12,-2193,13,13,16,-24,29,27,58,42
32,-2448,-52,-6,-25,-41,-9,19,-6,35
42,-2396,-98,-3,-16,-35,-22,21,1,25
46,-2175,-91,-17,-22,-23,-22,5,-84,21
39,-1723,-11,-14,-7,-17,8,-2,-49,26
15,-1068,5,3,10,-14,18,5,64,42
0,-388,-14,-7,2,-3,-14,15,79,46
-23,425,-6,-21,-10,-5,-37,3,-6,25
-39,1310,-17,-24,-34,-21,-43,-29,-108,3
-44,2015,-75,-9,-38,-17,-36,-25,-93,-5
-50,2272,-163,3,-25,-21,-25,6,-52,-25
-51,2188,-122,27,-5,-2,-4,45,12,-35
-34,1820,-34,21,-19,14,-29,43,-49,-34
-9,1113,5,17,-38,5,-36,25,-100,-29
7,352,26,19,-33,-16,-27,27,-87,-3
23,-272,40,18,-2,-14,-9,24,-14,20
36,-807,44,23,4,-9,-6,30,-16,30
53,-1203,50,31,23,-3,10,40,39,39
57,-1370,47,30,18,8,20,43,60,36
45,-1296,46,22,-5,5,31,34,22,47
20,-1076,22,1,-39,-11,15,10,-38,48
6,-615,22,6,-23,-12,-13,12,76,34
19,-31,36,37,13,6,-13,17,160,25
6,576,22,58,14,16,-14,10,126,6
-23,1308,6,39,-3,25,-19,-4,41,-3
-43,2007,-2,11,-23,22,-35,-38,-66,-24
-43,2452,1,1,-24,15,-46,-44,-81,-38
-29,2443,12,0,-31,14,-46,-37,-91,-35
-7,2150,26,-1,-22,18,-19,-23,-53,-27
4,1568,32,10,19,18,9,-3,56,-18
9,707,24,15,27,14,4,4,116,-8
32,-100,12,-18,-4,-4,3,5,56,8
52,-805,5,-38,-16,-21,10,8,6,37
46,-1389,4,-34,-23,-25,19,-1,-9,37
29,-1812,4,-10,-18,-11,16,5,1,37
0,-1943,16,0,7,-6,29,17,55,37
-30,-1882,-72,-13,-15,-6,14,-1,-27,6
-9,-1596,-104,-19,-26,-8,20,-11,-66,-13
29,-1081,-24,-2,-13,-3,13,-22,-32,-14
44,-510,14,16,20,1,-7,-23,27,-26
27,145,38,9,19,1,-13,-30,18,-36
-8,889,37,-2,-7,14,-21,-30,-34,-33
-56,1508,15,-17,-22,18,-27,-35,-111,-33
-103,1775,7,-28,-1,11,-29,-37,-125,-58
-106,1651,13,-26,11,16,-38,-35,-123,-78
-73,1333,-5,-11,18,19,-32,-35,-112,-76
-42,669,-52,-12,10,12,-18,-24,-107,-62
-27,-142,-19,-15,0,-5,26,-3,-67,-34
-6,-817,17,-19,-14,-16,38,11,-13,-7
26,-1343,34,-18,-1,-12,10,37,23,29
47,-1794,30,-11,2,-19,0,42,47,31
56,-2040,-9,-8,-7,-21,28,29,31,19
70,-1930,-68,5,27,-11,61,59,113,30
40,-1684,2,1,19,-15,51,49,63,25
13,-1263,45,3,17,-7,42,25,63,16
3,-666,22,-13,0,10,37,-8,6,18
-2,-19,31,-13,2,12,27,-23,-26,-10
-34,742,17,-7,-6,0,-5,-35,-57,-56
-76,1559,-4,-12,-4,0,-5,-46,-61,-75
-94,2191,1,17,19,15,2,-26,2,-72
-96,2370,1,13,17,36,6,-14,-12,-72
-84,2212,-1,-6,-12,36,2,-30,-100,-70
-62,1813,-1,-4,0,26,17,-13,-50,-58
-29,1098,21,2,38,26,14,14,59,-37
-13,352,31,19,39,18,-18,16,60,-30
9,-256,40,33,33,11,-14,13,69,-2
17,-809,15,3,-7,-6,-33,2,2,30
22,-1192,-1,-31,-39,-24,-55,1,10,30
41,-1320,-2,-26,-41,-30,-43,-7,15,-6
47,-1176,-45,-21,-48,-17,-2,-6,-5,-35
24,-877,-62,-20,-33,-23,16,-12,-17,-30
7,-375,0,2,-25,-27,9,-17,-27,-11
-29,233,-31,8,-26,-10,1,-14,-37,0
-52,875,-129,1,-27,-1,-12,-28,-50,-29
-57,1694,-171,0,-33,3,-44,-27,-30,-49
-65,2463,-118,-9,-24,9,-56,-29,-34,-6
-63,2921,-15,-11,-17,10,-64,-42,-66,-3
-34,2924,-56,-15,-27,-1,-76,-44,-70,-19
-28,2661,-134,-14,-35,0,-56,-47,-48,-21
-47,2088,-46,-15,-37,8,-38,-25,-12,-33
-21,1276,42,2,-18,13,-20,-3,50,-49
18,526,68,17,11,9,12,26,155,-40
16,-151,62,4,-11,7,10,24,62,-37
23,-729,-1,-2,-16,12,33,18,8,-26
30,-1132,17,-8,-18,-2,52,14,4,-5
25,-1255,63,-14,-21,-20,35,0,-11,-10
24,-1164,53,-21,-20,-23,0,-10,-16,-11
3,-926,37,-27,-11,-19,-1,-23,-30,-17
-36,-475,-35,-16,-9,3,2,-33,-61,-39
-34,40,7,-9,-10,1,-1,-33,-73,-37
-20,684,50,2,-1,-6,23,-29,-57,-23
-19,1435,37,-1,0,-4,26,-14,-25,-26
0,2081,34,-20,-13,-6,12,11,-1,-22
25,2363,32,-18,-22,-3,18,-2,-18,-8
26,2258,9,-27,-23,4,8,0,-44,7
13,1912,1,-22,-13,3,5,-6,-36,-1
-3,1256,-63,-7,-9,2,18,-12,-32,-30
-3,513,-133,4,-2,6,11,-6,37,-20
21,-116,-116,8,4,-3,22,13,112,26
36,-627,-86,-1,-2,-11,23,23,109,47
31,-1036,-79,9,-4,-16,-2,26,69,43
-10,-1229,18,9,3,-13,-18,21,23,18
-35,-1109,61,7,7,-13,-18,16,10,7
-7,-805,60,22,13,-8,-18,6,20,13
13,-305,56,32,-6,-12,-24,5,29,18
37,355,51,31,-8,-6,-26,1,38,11
42,1019,61,32,2,2,-23,-8,29,-1
19,1806,47,21,2,13,-31,-1,15,-12
-6,2615,-38,14,13,18,-34,-1,2,-15
-57,3168,-59,7,14,24,-23,0,-10,-45
-63,3264,28,6,5,16,-20,5,-8,-93
-28,3067,57,16,7,12,-18,7,24,-96
-5,2564,64,8,11,1,-8,3,3,-74
17,1740,61,0,7,-5,-3,11,-19,-48
32,944,62,10,3,-5,6,24,-3,-18
54,316,46,15,3,-5,24,14,28,18
74,-204,3,4,-6,-7,11,10,31,62
77,-610,6,0,-18,-20,19,16,25,65
61,-747,28,3,-13,-5,34,15,18,22
39,-631,-14,13,3,5,27,11,32,-10
31,-350,27,16,16,6,29,-1,34,-6
42,153,19,13,11,-5,17,-20,12,8
31,757,-77,0,5,-6,1,-26,11,25
8,1421,-41,-2,2,9,-11,-29,-6,13
-24,2233,16,16,-4,23,-29,-38,-47,-17
-27,2995,-11,2,-4,18,-34,-50,-35,-38
-13,3407,-7,3,-7,3,-18,-53,-23,-47
-18,3400,8,4,-15,3,11,-48,0,-36
-16,3176,18,-3,-17,13,30,-38,19,-15
-14,2608,2,11,-14,10,39,-24,23,-13
-11,1839,-71,13,-14,-13,41,-4,41,0
8,1171,-32,16,-18,-24,40,-9,29,28
19,578,21,6,-25,-17,15,-17,18,35
26,69,26,4,-19,-10,25,-10,4,26
20,-291,23,13,-8,-12,48,0,7,31
6,-362,-14,1,-3,-16,51,13,17,32
2,-257,-25,-8,-12,-23,31,21,2,34
-19,-7,10,-7,-19,-29,-2,7,27,49
-22,435,-29,-4,-8,-30,-28,-2,43,54
-17,897,-14,-14,0,-23,-34,-1,36,31
-29,1442,0,-15,12,-24,-42,-17,17,8
-38,2071,-8,-6,23,-20,-44,-36,-14,-6
-30,2566,14,0,19,-9,-43,-37,-29,-6
-26,2665,7,4,30,-4,-42,-32,0,-6
-26,2438,12,9,29,-15,-38,-32,-7,-7
-25,1992,20,3,21,-19,-34,-17,-21,-4
-6,1250,12,-13,8,-19,-19,5,3,4
23,431,5,-16,-5,-17,-11,15,31,5
35,-266,0,9,-5,-16,4,22,19,10
33,-866,9,8,-2,-21,22,22,-1,3
50,-1395,-5,-9,-2,-17,43,26,3,6
69,-1668,-75,-16,-7,-2,54,13,32,19
48,-1650,-138,-18,-7,1,48,-7,37,17
16,-1482,-85,-19,10,-8,40,-10,19,22
9,-1108,4,-16,24,3,38,2,9,23
-10,-620,-5,-9,42,4,36,8,10,11
-42,-128,-19,-10,43,-8,19,12,16,0
-59,495,-58,-19,21,-10,1,29,49,-5
-53,1129,-5,-14,23,9,-2,18,48,-19
-38,1524,28,-4,37,10,-14,-3,73,-23
-27,1442,37,8,41,12,-31,-9,58,-7
-11,1049,28,-1,26,12,-31,-13,-5,21
0,388,14,-11,26,2,-15,-9,36,41
2,-549,9,-14,31,4,18,28,78,53
0,-1457,27,-11,24,14,55,39,45,45
1,-2217,43,-5,27,23,70,23,29,29
-2,-2865,48,3,39,24,77,13,18,-4
13,-3352,45,15,40,20,66,1,7,-15
20,-3541,51,19,37,20,53,3,32,4
15,-3526,39,16,20,2,43,-4,10,25
25,-3332,5,6,18,-11,42,-34,-12,8
16,-2847,17,7,29,1,28,-42,-36,33
-2,-2269,4,-10,12,-11,14,-29,-41,40
-6,-1603,-3,-32,-12,-20,-18,-24,-64,27
3,-805,-3,-19,-16,-6,-25,-41,-98,11
9,-63,0,-18,-10,5,-26,-58,-98,-9
-1,309,6,-5,0,5,-21,-49,-78,-29
-8,274,2,13,-10,12,-18,-17,1,-16
-12,28,-62,18,-11,14,-7,12,83,17
-1,-509,-15,20,-1,5,-20,15,86,38
15,-1269,4,0,-9,3,-24,9,39,73
47,-1955,-7,-1,-9,0,-7,22,-4,95
70,-2518,11,4,-7,-9,2,34,16,107
62,-2954,29,-8,-15,-16,12,37,30,110
44,-3197,34,-12,-10,-17,21,35,4,101
16,-3114,21,-2,-12,-16,29,33,21,100
0,-2863,2,-13,-9,-16,28,23,22,81
-19,-2442,-31,-7,-2,-3,22,23,16,68
-22,-1810,-5,7,-4,0,16,11,-16,70
-18,-1057,1,5,-8,-6,13,1,-27,71
-17,-160,-4,-5,-8,-1,17,-5,-22,94
-23,766,-18,5,-6,8,18,-3,0,97
-34,1452,-27,-11,-8,20,5,5,11,73
-21,1631,-19,-12,-18,13,-3,2,-3,34
-13,1441,-20,-18,-22,3,-12,2,-5,13
-17,1034,-23,-11,-23,3,-26,8,-16,5
5,360,-5,-4,-18,6,-9,16,-8,20
40,-316,-9,-9,-15,2,12,21,5,45
18,-896,8,-9,-7,-1,33,20,7,45
-6,-1403,15,5,0,14,23,16,20,26
-14,-1808,12,15,-3,6,9,0,-11,10
-28,-1962,5,22,0,3,2,-3,-17,8
-14,-1852,-10,17,9,8,-5,13,39,22
19,-1586,18,22,16,19,-7,5,66,33
-3,-1143,7,22,18,29,-2,-14,11,10
-7,-563,9,30,12,28,-6,-31,-22,-9
1,29,17,20,14,29,-18,-29,-35,-12
-23,752,13,21,17,38,-4,-18,-26,-20
-46,1457,-4,23,10,41,0,-9,-14,-41
-38,1958,-10,-7,-15,20,-49,-24,-56,-64
-26,1633,-19,-17,-15,22,-28,-14,-32,-55
-16,970,-25,-15,-31,10,-4,-1,-12,-35
3,83,-33,-3,-18,8,13,12,29,-10
0,-735,-24,-4,-11,6,0,21,21,-1
14,-1402,-5,-4,-1,-5,-6,27,49,-11
44,-1980,-11,-6,-11,-16,-2,26,16,-24
73,-2432,-11,-1,-13,-4,5,19,-2,-28
59,-2504,-19,2,0,1,25,17,12,-56
43,-2329,-6,-6,9,0,18,7,5,-64
35,-2075,-1,-13,14,6,-10,-7,10,-54
18,-1605,0,-15,6,6,-22,-13,-5,-64
6,-1060,5,-13,16,16,-19,-11,0,-71
17,-422,1,-3,26,26,-22,-11,26,-56
7,326,-3,3,11,39,-39,-3,-8,-57
-1,963,-5,9,-5,37,-54,-16,-24,-77
-6,1211,-3,0,-4,24,-42,-23,-24,-83
-3,1048,-2,2,1,23,-30,-22,-22,-84
-3,648,4,2,4,24,2,-11,-3,-65
11,-72,16,0,5,18,-3,-1,29,-49
18,-913,16,21,4,17,-6,-2,43,-43
38,-1646,10,12,7,11,-3,-8,12,-26
43,-2253,12,-2,5,-2,6,-13,25,-17
37,-2735,2,1,-6,-11,7,-7,3,-18
37,-2989,3,1,-8,-16,10,-3,38,-20
28,-2936,16,11,-8,-8,15,1,69,-17
36,-2705,7,-11,-15,-4,15,4,56,-18
38,-2288,7,-12,-11,-4,2,1,9,-32
27,-1697,9,9,-2,-1,-10,-5,10,-54
15,-1042,11,-2,9,-7,-11,0,-1,-63
16,-218,18,-10,2,-5,-11,4,-6,-61
-3,647,24,-12,-7,1,-24,-5,-32,-56
-13,1287,19,-10,-8,-2,-25,-11,-16,-52
-22,1487,8,-15,2,4,-9,-22,-11,-44
-3,1367,4,-15,1,2,-12,-34,-21,-32
29,1014,4,-16,-9,-3,-20,-32,-51,-23
13,333,0,-16,-18,-2,-8,-14,-19,-14
3,-370,-51,-10,-21,4,9,28,6,12
-8,-928,-85,18,-12,9,12,33,-15,2
-27,-1388,-24,17,-15,8,9,21,-26,-5
-1,-1741,13,11,-9,-2,-1,11,-15,1
29,-1835,37,16,-5,-2,9,20,22,20
47,-1658,34,2,-17,-3,11,38,57,19
41,-1339,17,-2,-28,-5,1,40,25,1
24,-782,9,7,-32,4,5,23,27,-12
12,-119,7,10,-29,7,-4,13,-2,-38
6,602,8,8,-12,15,2,13,-33,-59
1,1478,2,12,-5,17,0,-8,-48,-56
-4,2283,-2,18,-8,24,2,-26,-28,-41
-19,2783,-2,11,-16,32,1,-40,6,-59
-32,2825,4,13,-14,26,-11,-49,-17,-66
-47,2569,9,24,-12,24,-28,-37,-63,-53
-22,2003,12,19,6,14,-21,-21,-28,-28
-4,1199,2,6,6,0,-10,23,51,-9
10,438,0,1,0,1,-1,44,94,5
8,-218,8,-3,-6,-1,8,36,69,14
3,-732,6,-16,-12,-10,12,30,53,34
2,-1090,-10,-16,-22,-8,11,22,-1,42
-5,-1157,-9,0,-19,0,15,20,-14,20
-5,-1088,1,0,-13,-4,7,13,-19,-9
-6,-831,8,0,0,-8,8,18,-10,-9
-3,-308,-28,14,9,5,12,16,-12,-11
0,263,-25,4,17,15,4,-1,-18,-8
-7,943,10,0,13,17,7,6,-9,-7
-22,1736,8,3,13,26,-12,-2,-39,-14
-35,2372,-28,10,2,25,-36,-20,-60,-35
-60,2599,-55,9,-5,29,-35,-15,-65,-39
-66,2449,-81,13,2,41,-35,-14,-61,-10
-57,2078,-25,11,0,32,-16,-3,-31,33
-35,1346,-79,1,-8,8,23,27,13,35
-13,500,-95,-3,-6,10,40,39,5,20
17,-225,-1,5,-11,13,21,17,-13,25
54,-830,21,0,-16,-4,0,-3,9,33
73,-1354,-7,2,-13,-9,27,5,31,28
71,-1636,37,3,-17,-11,40,13,22,12
60,-1645,50,-1,-8,-7,43,7,11,-12
42,-1491,38,-6,0,-4,40,7,0,-41
20,-1139,47,-12,3,9,48,11,12,-54
10,-633,36,-16,0,7,35,12,-10,-28
-30,-82,15,-11,-2,1,16,5,-23,-18
-74,610,1,-2,2,11,7,4,-26,-44
-73,1311,-8,-5,-3,18,-10,6,-37,-63
-77,1787,-2,1,-8,24,-44,0,-60,-77
-67,1806,6,12,-5,32,-41,-5,-90,-78
-55,1541,5,14,-7,25,-6,-14,-80,-72
-23,1044,-27,30,-1,18,13,-13,-64,-44
4,243,6,33,-2,7,18,-1,-67,-13
18,-534,22,16,-3,-2,21,-7,-32,0
21,-1153,31,22,-5,-15,21,6,42,35
25,-1701,32,21,-8,-24,25,29,91,74
34,-2095,46,31,6,-19,4,24,89,79
26,-2155,47,30,16,-9,-14,14,66,73
2,-1955,21,22,14,-12,-20,18,27,62
6,-1604,-37,30,15,-7,-22,10,35,46
13,-1038,-111,28,7,-5,-16,14,9,34
7,-386,-23,3,-7,-12,-17,7,24,24
-3,303,21,-1,-7,-9,-14,1,6,20
-14,1121,14,-10,-15,-7,-22,-6,-18,27
-27,1852,0,-10,-18,-3,-22,-11,-13,31
-27,2232,0,2,-16,-4,-34,-16,-45,27
-21,2160,-42,9,-5,3,-31,-24,-53,29
-36,1851,-47,15,-7,15,7,-14,-27,32
-32,1197,32,15,-15,7,2,-2,-21,18
21,322,33,18,-9,0,12,13,-6,21
46,-461,24,10,-5,1,21,6,-11,21
46,-1113,21,2,-14,8,31,-10,-33,9
43,-1663,13,3,-30,3,53,5,-33,7
54,-2020,-8,-2,-24,-11,65,13,-23,13
57,-2054,-90,-19,-5,-17,65,5,8,24
56,-1898,-42,-18,1,-22,52,11,33,38
50,-1555,10,-26,-12,-35,45,14,1,49
36,-1026,13,-30,-15,-37,16,15,-4,33
6,-452,24,-6,2,-20,2,8,-10,-3
-20,221,28,7,10,-11,5,-13,-30,-40
-44,990,35,15,1,4,-4,-28,-63,-72
-48,1606,24,5,5,16,-13,-35,-56,-84
-18,1793,15,-5,1,8,-7,-30,-54,-49
17,1617,-10,0,-7,-12,-13,1,-25,-3
18,1186,-109,0,-6,-15,-24,23,35,23
16,424,-159,4,8,-2,-15,6,47,23
24,-372,-120,21,28,-3,3,-2,42,24
45,-1048,-45,25,25,-4,31,9,32,35
44,-1609,-55,10,12,-9,49,30,48,49
39,-2036,8,0,2,-11,53,23,28,46
34,-2183,61,-4,-3,-18,41,10,44,51
28,-2045,48,-11,-6,-26,34,12,30,35
25,-1752,45,-5,-10,-23,31,23,37,23
36,-1225,49,6,1,-17,23,30,17,7
31,-538,45,20,1,-8,14,31,13,-4
13,157,36,18,1,-6,6,31,16,10
3,1022,34,20,6,6,-3,10,28,40
-1,1881,8,14,-5,13,-16,-11,-25,30
-35,2447,-71,15,4,13,-28,-21,-31,-5
-59,2554,-17,18,26,27,-41,-39,-37,-29
-61,2413,55,22,34,32,-38,-30,-57,-44
-50,1985,53,17,13,21,-28,-18,-57,-38
-22,1250,48,-9,-2,1,-22,4,-9,-9
8,589,34,-15,-5,-9,-13,27,46,10
29,35,17,-1,-8,-13,-7,31,18,20
26,-446,10,3,-5,-11,-2,34,-5,29
1,-812,16,0,-2,-13,-9,38,-1,34
-24,-897,18,11,8,-18,-4,29,-10,29
-27,-771,-26,17,5,-23,20,7,-14,20
-32,-508,-8,2,3,-21,3,2,-12,15
-24,-46,1,-8,11,-12,-1,9,27,9
-5,478,13,-5,10,-6,-4,9,17,8
-23,1061,7,0,7,-8,-16,-5,-19,4
-39,1737,-31,0,11,-7,-27,-24,-50,-22
-37,2308,-60,6,8,-4,-24,-27,-44,-31
-47,2492,10,-1,9,2,2,-32,9,-16
-41,2257,16,-1,6,9,14,-30,20,-1
-4,1762,21,3,0,19,8,-19,-16,7
44,945,22,8,-5,9,10,-21,-6,25
82,-73,31,-6,-13,-17,20,-15,35,73
59,-986,13,-29,-4,-21,20,7,44,89
16,-1781,-79,-32,-6,-16,35,12,44,80
-27,-2486,-143,-35,-3,-11,34,8,53,56
-30,-2979,-39,-27,11,-8,13,14,32,35
4,-3151,11,-24,19,-19,15,23,56,36
10,-3109,2,-23,24,-24,0,3,33,32
15,-2841,-15,-8,40,-19,-5,-2,55,28
12,-2390,-61,-5,49,1,-2,4,57,10
-1,-1914,11,5,48,7,-23,-3,-20,-19
-2,-1375,46,12,28,12,-36,-18,-50,-44
-17,-966,27,4,16,6,-42,-27,-44,-42
-47,-479,19,-3,14,-3,-31,-45,-95,-44
-48,-286,22,-11,8,0,-34,-57,-99,-41
-27,-432,21,-20,-3,-2,-23,-47,-62,-3
-16,-843,13,-20,-14,-10,-12,-22,-6,25
-12,-1544,9,-25,-14,-6,-18,-4,-14,41
1,-2255,20,-18,-13,-7,-8,-9,-52,44
13,-2831,32,-8,-12,-23,-9,-8,-5,41
19,-3281,40,-15,-16,-36,-7,9,83,43
30,-3617,46,-24,-19,-31,0,22,111,38
40,-3675,40,-25,-10,-31,-1,43,121,26
35,-3442,28,-28,-2,-31,-3,58,133,11
39,-3025,1,-22,14,-10,0,48,103,-4
30,-2378,0,-13,20,0,4,26,56,-17
29,-1593,24,-13,28,-4,-8,15,35,2
18,-756,16,-7,26,-6,-12,1,-9,26
0,235,13,-21,26,-9,-25,-13,14,6
-18,1209,-3,-9,23,-12,-38,-9,4,-36
-20,1922,4,1,41,-11,-31,19,63,-47
-19,2186,2,-5,19,-3,-30,17,39,-41
-11,2168,-6,-25,-13,-2,-25,1,-39,-36
-3,1890,1,-11,-10,-11,-19,-1,-35,-27
-13,1368,1,9,-8,-22,-9,0,-15,-11
-12,900,-17,7,-6,-13,-8,11,-2,2
13,534,-39,0,-12,-15,-6,30,36,12
18,278,-3,-18,-21,-24,6,23,44,10
8,169,16,-21,-15,-14,8,21,-8,-23
1,334,28,-9,-17,-9,7,22,-8,-38
-5,682,9,7,-14,-21,9,8,2,-23
-15,1179,-14,16,-12,-10,0,-1,1,-44
-31,1855,18,6,-3,10,-17,-4,-30,-79
-43,2580,34,18,-2,16,-25,-16,-49,-85
-48,3345,15,8,-8,9,-31,-30,-57,-66
-39,4190,0,-2,-9,3,-29,-38,-49,-34
-47,4899,8,3,6,8,-25,-52,-76,-47
-60,5194,-11,2,1,11,-17,-49,-61,-56
-53,5072,-29,-12,0,2,0,-44,-41,-47
-53,4671,-17,-3,6,1,-1,-45,-48,-45
-41,3925,-4,14,-2,-1,-17,-39,-45,-23
-11,3038,3,13,-14,-11,0,-21,-22,-9
-1,2263,2,8,-4,-11,47,-17,7,-22
3,1588,0,12,8,-10,62,-16,0,-25
14,1009,3,7,25,-19,40,-18,-8,-19
23,648,25,28,26,-25,11,-10,39,-3
5,593,26,39,24,-23,18,11,41,-6
-29,712,21,40,32,-15,40,17,29,-31
-20,1016,20,35,32,0,32,3,-17,-34
-16,1476,4,22,40,0,4,-9,-18,-53
-37,1984,-17,4,32,2,-1,10,18,-54
-24,2634,-15,0,24,5,12,14,13,-52
-18,3309,-11,0,29,11,21,-11,11,-57
-23,3764,-7,7,23,15,14,-32,-8,-52
-11,3792,-15,15,14,18,-3,-32,-4,-39
-16,3523,-37,8,0,17,-31,-30,-24,-41
-32,2950,-77,4,5,19,-18,-20,-6,-54
-13,2080,-10,6,6,21,-8,0,5,-44
10,1217,17,5,-1,21,-5,18,38,-14
25,449,4,-7,-11,15,5,19,47,0
22,-228,4,-9,-2,7,-5,17,18,-11
21,-784,16,-8,-2,0,13,20,14,-13
30,-1065,20,-18,-9,2,39,22,9,-1
35,-1075,22,-7,-3,2,44,10,10,-10
46,-950,-14,-11,0,0,24,-10,0,-16
35,-612,-126,-25,1,10,-17,-30,-3,-19
33,-137,-105,-18,6,27,-20,-36,-8,-27
23,385,-47,-17,8,32,-4,-31,-43,-27
13,1063,-12,-23,-6,26,0,-25,-58,-33
-10,1695,-19,16,-5,27,-34,-26,-60,-45
-36,2018,-113,32,1,38,-31,-25,-49,-65
-28,1913,-99,30,8,50,2,-13,-37,-70
-18,1579,14,34,7,48,-1,-10,-33,-67
-10,970,50,34,-2,28,-20,-19,-30,-60
7,137,48,27,-4,7,-24,-11,-40,-28
29,-614,48,14,-1,-5,-26,-10,-50,-12
29,-1242,39,-3,-1,-10,-16,0,-12,-4
16,-1771,37,-5,-12,-2,7,20,7,7
33,-2116,42,-1,2,-2,13,21,22,20
47,-2135,44,6,14,5,3,10,74,20
56,-1940,36,29,26,21,5,22,77,12
39,-1575,26,33,36,27,20,31,18,6
8,-997,-32,19,40,16,32,41,11,1
-7,-392,-78,18,23,8,5,26,7,-7
-10,308,0,12,20,12,-13,-1,-30,-13
-20,1104,-61,3,15,17,-11,-15,-34,-13
-40,1753,-116,0,1,19,0,-19,-24,-20
-44,1997,-22,4,2,8,7,-20,-57,-19
-34,1870,31,4,-12,-4,-9,-4,-55,0
-16,1511,31,7,-27,-19,-15,8,15,5
16,813,-3,12,-13,-29,-7,5,26,10
41,-1,-105,23,-8,-32,10,8,-2,43
85,-675,-112,16,-5,-32,17,0,-5,84
117,-1251,-45,0,-10,-44,8,7,64,96
101,-1729,-53,-8,-13,-45,18,43,115,92
40,-1971,-54,4,-7,-19,34,67,99,77
-29,-1898,51,24,-1,2,45,69,65,40
-51,-1605,86,21,10,8,41,58,27,-9
-52,-1086,73,8,7,12,26,40,28,-22
-39,-383,29,11,-1,10,5,23,44,-9
-24,337,0,11,-11,2,-20,21,24,14
-22,1178,55,18,-2,8,-45,9,21,32
-33,2031,61,16,4,13,-72,-7,-14,20
-41,2649,47,9,0,16,-78,-11,-47,2
-58,2800,51,12,0,17,-66,-3,-66,-14
-79,2670,53,8,-3,18,-52,-3,-72,1
-72,2255,22,-1,-2,0,-21,-8,-30,27
-29,1535,-11,-6,-15,-21,0,-8,-22,41
-2,824,25,-7,-22,-28,-20,-10,-37,35
3,234,41,-6,-21,-29,-19,-18,-18,27
7,-98,45,-16,-16,-28,-12,-12,16,4
11,-257,-2,-11,-5,-30,20,24,48,-21
18,-409,-46,3,1,-13,28,38,63,-54
35,-386,50,2,11,-2,11,30,60,-60
25,-233,65,-17,25,6,-5,17,36,-55
24,137,56,-21,19,12,-23,-3,-25,-59
18,577,46,-24,22,9,-32,-10,-47,-31
-3,1082,44,-24,20,7,-32,0,-41,-14
-25,1708,30,-18,19,20,-26,9,-17,-20
-52,2263,-9,-11,23,18,-33,-5,-13,-32
-44,2494,-6,-8,9,1,-49,-17,-20,-40
-13,2330,10,-11,-1,-3,-52,-19,-11,-25
13,1896,29,-6,14,-2,-48,-9,-2,0
25,1117,-12,6,28,7,-46,-11,-2,24
24,156,-66,-1,23,6,-22,-6,17,30
7,-695,-35,0,24,0,5,-4,36,33
21,-1421,33,0,25,-19,-4,-13,9,48
33,-2076,51,-8,25,-31,-1,-14,8,52
26,-2549,43,-11,26,-23,28,-16,5,56
25,-2705,42,-8,19,-18,19,-13,14,52
32,-2652,41,-2,11,-27,30,-15,13,34
19,-2419,34,-16,8,-24,21,-17,14,25
13,-1968,17,-20,-1,-15,33,-6,17,31
9,-1470,21,-10,-6,-15,34,-9,34,21
0,-852,14,-14,-6,-18,13,-19,5,11
-11,-142,-18,-19,-1,-9,9,-31,5,20
-36,425,-27,-23,5,9,-30,-38,-27,13
-27,559,5,-2,1,8,-55,-36,-29,13
-13,358,27,-8,3,2,-53,-34,-2,-3
-11,-60,35,-20,3,-3,-52,-37,-12,-8
-3,-815,49,-5,-5,0,-37,-38,-21,9
17,-1625,45,-5,0,10,-18,-24,0,59
20,-2301,25,-25,-2,1,-9,-3,45,99
19,-2848,2,-30,-8,-12,-3,15,74,103
25,-3263,4,-22,-7,-26,4,25,57,95
16,-3404,4,-22,-5,-32,18,13,17,70
-16,-3267,5,-24,-2,-18,16,11,8,9
-12,-2944,-2,-17,0,-9,22,5,-9,-16
-3,-2398,-56,-13,-13,-6,11,7,-21,-21
-15,-1734,-35,-5,-4,9,2,2,-17,-50
-12,-1021,-3,-10,-3,14,-7,-8,0,-57
-9,-144,-7,-12,-20,7,-16,-33,-6,-42
-11,710,-10,1,-18,16,-3,-48,-23,-52
-14,1298,-11,10,-10,19,-7,-67,-58,-50
-10,1437,2,7,-7,13,-4,-73,-65,-42
6,1324,16,18,0,14,10,-47,-32,-36
3,926,12,6,0,8,33,-16,0,-38
-12,240,4,4,-8,5,51,-11,-26,-29
-12,-398,-23,5,2,18,45,1,-24,6
2,-924,-31,0,1,23,36,10,1,44
9,-1369,7,-7,15,15,45,13,-9,36
24,-1640,2,-13,12,-4,50,16,-5,22
17,-1655,4,-6,5,-2,44,7,4,3
-4,-1447,9,0,7,13,24,-13,-4,2
-22,-1094,-9,-4,2,7,15,-12,10,7
-37,-540,-18,-11,-13,-5,6,-1,18,-2
-46,43,-47,-10,0,-5,-13,-15,0,-15
-65,680,-49,-3,-4,0,-28,-21,-25,-17
-64,1439,-116,-9,-21,4,-31,-11,-30,-5
-48,2107,-169,-16,-31,0,-48,-5,-5,9
-44,2350,-155,-21,-31,2,-46,6,2,3
-54,2172,-101,-18,-16,14,-36,17,48,2
-45,1739,-45,-8,-9,12,-2,30,31,0
-8,995,-52,4,-11,9,10,27,18,9
53,120,12,5,-16,4,9,23,27,35
80,-656,51,-7,-19,7,2,20,13,52
76,-1325,49,-2,-19,13,11,31,11,61
62,-1907,-16,5,-17,5,13,33,26,45
42,-2272,-58,12,0,10,18,31,29,33
15,-2336,39,17,7,10,32,21,2,17
0,-2213,65,0,-17,-12,10,34,10,3
4,-1856,65,-3,-11,-12,22,30,32,-6
16,-1305,42,16,6,7,26,14,22,-5
8,-754,13,8,4,15,3,-2,-37,-12
-1,-51,-24,5,-10,13,-19,-9,-55,-19
-14,716,-20,-7,-12,17,-63,-6,-35,-8
-26,1308,-4,-21,-13,21,-64,4,-19,-8
-16,1449,-31,0,-14,9,-60,-3,-34,-6
-6,1257,-3,2,-14,2,-55,-8,-46,-20
24,837,35,5,-16,6,-26,-2,-45,-6
69,89,34,-1,-11,11,3,3,-50,20
91,-693,17,-7,-5,6,17,16,-44,36
83,-1366,26,4,-2,-11,36,20,-35,51
66,-1946,40,8,-2,-14,49,22,-6,76
58,-2425,32,0,0,-7,31,34,66,90
16,-2676,17,1,13,-1,10,34,89,54
-19,-2626,8,7,28,7,4,32,71,9
-7,-2409,-7,3,34,1,1,19,38,5
0,-1961,-21,-12,24,-10,21,22,83,16
0,-1429,7,-14,14,-10,40,12,98,11
-16,-866,5,-3,6,1,22,4,35,0
-28,-148,7,-3,0,16,-2,-2,-15,0
-32,538,-13,-4,-5,18,-32,4,-8,-11
-51,917,-116,-12,-6,18,-35,4,-32,-11
-55,829,-116,-5,-1,9,-38,-1,-30,-7
31,-2665,32,-11,0,-25,18,13,-53,58
42,-3215,25,-21,-8,-32,19,11,-2,57
45,-3590,36,-3,-7,-43,20,-8,-6,32
53,-3684,43,11,-5,-41,16,-3,9,-2
46,-3560,50,20,0,-21,23,20,33,-9
33,-3276,22,9,-3,-4,30,19,26,-22
15,-2785,7,-5,4,5,21,8,-2,-13
0,-2221,22,-6,-7,-3,-12,-5,-18,3
-19,-1530,15,-7,-25,-5,-28,-32,-30,2
-32,-707,12,5,-13,1,-30,-40,-49,-11
-44,2,5,5,-6,-2,-25,-24,-39,-24
-60,308,-12,3,-17,-9,0,-20,-21,-24
-67,225,-10,16,-32,-2,4,-25,-45,-26
-34,-33,0,19,-28,8,20,-9,-2,5
5,-619,-34,-2,-19,-1,44,14,32,49
17,-1315,-110,-8,-25,-19,40,16,23,62
26,-1878,-45,-11,-18,-11,48,10,42,60
41,-2326,-110,-21,-23,-10,42,18,12,64
46,-2645,-89,-30,-11,-19,34,20,26,60
41,-2726,15,-8,-8,-30,11,8,16,59
56,-2488,28,2,-19,-32,-3,0,27,75
61,-2063,32,-2,-23,-28,8,8,37,80
48,-1448,38,2,-5,-15,5,-6,4,54
22,-663,44,1,8,2,2,-26,-14,27
-13,136,33,10,9,17,2,-36,-20,5
-42,1102,12,16,4,10,6,-33,-27,-12
-31,2122,15,18,-6,0,-9,-37,-39,-20
-27,2908,14,17,-4,0,-14,-37,-33,-12
-27,3211,7,11,2,6,-10,-35,-7,-1
-14,3183,4,10,-3,7,-8,-38,-26,-1
-18,2891,7,13,-10,-6,5,-31,-40,-1
2,2268,13,9,-16,-11,-3,-11,-27,-1
21,1642,19,8,-15,-8,8,0,53,-18
37,1123,-31,8,-18,-7,10,13,70,-27
45,674,-44,15,-20,-20,-18,7,9,-37
59,351,47,25,-10,-23,-33,18,-3,-27
72,256,33,29,-11,-19,-22,27,6,-14
67,424,24,14,-6,-17,-16,22,24,11
37,718,37,8,-10,-17,-15,13,-1,12
-7,1184,20,21,3,0,-14,6,-31,-21
-26,1743,-6,27,1,9,-8,6,-27,-23
-38,2348,-62,12,-10,-3,-16,1,0,4
-54,3062,-1,13,-23,3,-27,-10,-21,7
-83,3692,18,19,-30,20,-28,-5,-20,-14
-74,3985,23,16,-20,21,-17,-13,-17,-13
-68,3822,18,12,-12,12,-21,-16,-8,-33
-45,3413,-1,23,-12,16,-16,-15,8,-37
-5,2673,1,10,-11,11,0,-14,15,0
25,1712,18,-7,-18,0,25,-5,15,32
43,810,19,-5,-22,-10,24,12,24,32
43,29,18,0,-15,-19,25,30,28,29
43,-644,-2,1,-10,-7,37,50,39,33
29,-1176,8,-14,-4,4,41,42,60,33
8,-1425,12,-11,-7,1,45,37,55,18
0,-1458,-7,-10,-4,-2,40,43,35,27
3,-1299,-7,-12,11,0,29,26,43,38
3,-913,9,-5,18,1,24,8,44,23
-12,-464,15,0,20,5,16,-10,8,-10
-16,120,25,-3,20,8,4,-37,-30,-36
-16,797,25,-12,10,19,-27,-52,-52,-42
-21,1315,6,-14,2,20,-39,-55,-59,-54
-15,1433,5,-6,13,22,-34,-48,-46,-51
-42,1187,-6,1,18,24,-27,-39,-68,-52
-52,714,-46,0,12,10,-12,-34,-66,-71
-42,-90,-29,2,18,4,-3,-23,-53,-58
-23,-947,2,8,31,10,8,-18,-58,-24
-4,-1701,0,15,45,5,21,-12,-48,-4
9,-2348,0,4,41,-4,26,4,-12,-5
14,-2835,-66,-3,23,-10,24,25,28,0
18,-3076,-45,5,33,-7,25,20,62,2
23,-3029,23,2,31,-17,22,14,82,12
20,-2798,27,3,24,-18,16,14,65,14
10,-2350,4,7,21,-18,-3,14,39,6
9,-1738,1,-4,24,1,-24,15,35,-2
9,-1102,11,9,22,11,-42,6,-20,-11
3,-291,7,23,21,9,-42,-13,-44,-25
-12,528,6,19,29,21,-38,-29,-4,-30
-29,1103,9,-1,31,23,-30,-22,2,-32
-53,1220,-10,-3,21,16,-21,-7,-10,-30
-76,1028,-12,-2,8,8,-25,-9,-34,-45
-64,562,-32,-10,9,0,-15,-8,-3,-34
-22,-181,-135,-7,11,5,26,2,46,11
1,-882,-150,-4,20,2,60,2,48,11
27,-1472,-119,1,19,-6,54,5,24,6
46,-1947,-29,7,23,-14,53,9,-1,5
52,-2268,-33,-5,14,-22,53,4,-52,1
53,-2306,42,0,16,-15,49,1,-41,-1
42,-2137,74,12,9,-16,32,6,-37,-4
32,-1815,56,5,-7,-7,11,11,-25,7
41,-1250,41,-8,-13,-1,-14,7,33,37
48,-591,35,1,-12,0,-16,-4,101,61
24,117,13,4,1,-1,-26,-16,51,38
-22,948,-5,0,18,0,-39,-31,-31,56
-54,1685,-22,-1,7,0,-49,-39,-59,76
-60,2068,5,16,10,0,-41,-42,-69,32
-73,2013,53,25,18,1,-25,-51,-75,-18
-61,1737,41,37,20,1,-25,-48,-87,-24
-37,1153,24,31,10,-4,-24,-27,-18,-17
-16,372,20,21,0,-13,-15,13,22,-20
9,-314,22,12,-3,-20,10,38,34,-14
41,-870,33,-7,5,-22,16,43,63,7
55,-1339,28,-25,-6,-21,12,44,37,21
44,-1647,20,-11,-10,-23,-2,44,25,16
45,-1603,-45,-7,-9,-24,19,27,16,7
39,-1304,-66,-12,-12,-19,37,40,63,25
10,-797,-52,-12,-17,-19,35,59,72,37
-16,-208,13,-11,-14,-6,9,49,49,41
-33,403,30,-4,2,0,-6,29,14,23
-52,1132,42,2,20,0,-38,11,-17,-22
-67,1928,48,17,23,17,-51,-4,-27,-58
-62,2549,37,22,16,18,-56,-21,-60,-75
-40,2709,26,5,0,5,-47,-22,-60,-31
-29,2516,22,-2,-8,6,-36,-17,-28,29
-39,2087,14,-12,-10,-8,-29,-21,-22,52
-38,1330,3,-16,-18,-22,0,-15,-7,64
-18,456,-65,-4,-17,-23,39,0,33,44
12,-512,-113,0,-11,-28,58,18,8,-8
18,-1286,-88,-1,0,-20,68,44,-7,-36
13,-1763,-7,2,5,-16,67,40,-25,-34
19,-1993,72,6,0,-23,50,30,-32,-18
30,-1935,66,4,-7,-21,8,30,-21,1
14,-1713,54,-12,-13,-34,-12,34,13,4
-5,-1276,51,-23,-16,-40,-21,15,18,11
-12,-717,49,-26,-14,-23,-22,2,33,11
-14,-90,47,-16,-2,-8,-30,-6,27,-12
-31,670,43,-12,2,-3,-33,-18,5,-28
-38,1411,48,-23,-2,0,-31,-24,-31,-17
-14,1888,44,-18,-8,0,-41,-43,-80,-51
6,1911,40,-21,-14,-8,-35,-42,-55,-56
-9,1645,39,-2,-16,-9,-22,-32,-35,-42
-23,1091,31,20,-1,-1,-18,-30,-30,-30
-3,286,36,15,4,10,-4,-23,-24,-8
22,-492,45,19,12,4,20,-17,-9,3
40,-1126,48,3,0,-6,22,-10,-16,16
57,-1660,48,3,-4,-8,9,-14,-29,32
10,-2078,25,7,-2,1,18,-12,-13,4
2,-2178,-83,-5,-13,4,27,-2,13,-6
16,-2025,-156,-8,-23,1,23,0,13,-8
12,-1714,-69,-16,-27,-9,-6,5,4,-4
0,-1179,12,-19,-32,-13,-16,22,26,-8
-11,-560,15,-21,-30,-3,-10,28,71,-13
-15,139,8,-17,-26,6,-9,12,27,-23
-42,958,18,-4,-17,13,-27,-2,7,-51
-49,1660,36,2,0,17,-28,-7,-6,-65
-20,1990,-9,2,3,28,-20,-18,-17,-57
19,1922,-61,0,-6,23,-8,-16,-13,-36
10,1620,-17,-4,-9,8,0,6,33,-24
5,1012,11,-10,-17,9,20,20,76,-27
29,274,13,-6,-15,18,47,25,47,-45
28,-363,-48,-3,-10,14,50,36,29,-31
18,-881,4,-10,-9,5,39,39,32,-23
0,-1330,35,-7,8,2,8,30,6,-42
-9,-1598,41,0,14,-4,6,17,23,-35
14,-1507,-2,-14,-6,-12,0,10,-2,-30
14,-1216,-60,-21,-5,-1,-15,8,-17,-28
-5,-750,-16,-16,11,0,-26,12,-5,-32
-11,-118,28,1,2,-5,-17,12,-31,-40
-5,549,40,-5,-1,2,-18,10,-16,-44
-18,1345,24,-26,-11,4,-49,3,-22,-36
-21,2163,0,-14,-10,-8,-51,-1,24,-19
-11,2776,17,1,0,10,-29,-14,78,-16
-1,2925,23,14,16,24,-12,-37,44,-36
4,2729,-56,19,12,26,-29,-28,-6,-35
-10,2271,-96,6,3,25,-30,-16,-11,-13
1,1470,4,12,-5,22,-12,-1,0,0
-3,644,16,18,-8,12,0,10,-8,-2
0,-83,-47,15,-6,2,12,15,-10,-3
23,-725,1,21,3,-8,36,20,-6,15
36,-1226,17,11,14,-6,52,19,9,26
45,-1465,60,9,15,1,50,15,-1,17
41,-1455,67,13,12,-1,43,13,8,19
39,-1292,44,-3,9,6,35,16,13,22
24,-914,20,-15,1,15,40,18,24,1
18,-410,10,-24,-4,14,16,20,-28,-28
11,159,-3,-18,-22,12,-20,10,-61,4
-21,872,-100,-13,-23,9,-37,-11,-46,43
-32,1548,-50,-17,-19,7,-57,-16,1,43
-30,1905,12,-12,-8,15,-55,-23,-29,27
-23,1818,31,-6,-3,23,-52,-31,-55,-1
-12,1493,27,-7,3,21,-32,-36,-65,-26
-7,885,22,3,8,13,-13,-20,-18,-15
-2,61,34,19,20,1,8,-8,48,-1
-7,-704,58,24,37,6,26,6,36,-2
-25,-1349,62,9,29,16,46,19,20,9
-30,-1865,55,3,22,8,78,23,-8,-9
-14,-2208,56,2,16,0,96,24,0,-11
7,-2195,48,-2,8,-12,86,24,17,13
16,-1957,37,-9,11,-3,75,20,27,34
32,-1539,36,-1,2,5,63,1,2,50
20,-907,15,3,0,8,46,-14,-15,66
-3,-244,5,-4,-7,9,6,-11,8,61
-32,512,1,-2,-9,5,-35,-13,-9,39
-37,1382,-8,-7,-4,16,-35,-15,-51,20
-52,2144,-11,-6,5,19,-24,-10,-50,5
-85,2486,-1,-1,7,26,-27,-7,-47,12
-71,2419,-17,2,-1,23,-30,-4,-39,11
-21,2148,-20,4,-5,13,-30,-4,-28,13
12,1527,-9,-2,-9,3,-23,16,-16,38
23,779,-6,-12,-7,0,-22,17,-23,51
19,183,5,1,4,-5,-14,-2,-20,37
21,-313,16,2,0,-12,-9,0,26,58
29,-672,13,-12,0,-26,-8,10,31,72
25,-795,11,-4,2,-27,-6,4,65,49
20,-664,-4,-9,-1,-24,0,0,55,14
20,-352,-17,-8,-6,-9,-2,1,7,3
9,116,-38,-15,11,13,21,5,-4,-4
-8,748,-145,-17,4,13,16,-6,-54,-7
-14,1419,-161,-19,2,0,-1,-12,-30,12
-24,2213,-65,-39,4,-10,-9,-26,-14,27
-27,3014,-29,-41,-4,-6,-28,-52,-56,23
-5,3576,-12,-14,0,7,-51,-68,-87,51
16,3700,-4,1,8,11,-41,-57,-69,56
31,3515,5,14,9,24,-28,-61,-54,31
52,3067,30,12,13,26,-30,-70,-58,17
53,2300,21,12,22,28,-3,-67,-49,8
31,1504,7,8,14,19,15,-32,-17,18
34,832,9,-9,-4,8,21,12,30,25
22,239,12,-7,-4,0,27,22,38,10
4,-229,11,4,-3,-11,18,25,11,-7
16,-422,7,6,-4,-21,7,33,33,-1
22,-349,7,-3,-10,-32,12,36,58,12
35,-107,3,-9,-15,-17,19,29,72,1
24,309,-4,0,-12,0,19,20,42,-5
-1,810,-27,-5,2,-5,12,15,51,10
-16,1381,-103,-10,-3,-5,2,12,30,0
-28,2089,-155,1,-14,2,-16,-11,-28,-16
-27,2745,-94,6,-17,6,-51,-27,-44,-2
-21,3044,-13,3,-24,12,-56,-23,-57,-1
-36,2897,-8,-3,-47,15,-40,-24,-88,-22
-35,2520,1,10,-40,15,-14,-25,-89,-36
-36,1816,-12,17,-19,12,20,-22,-69,-37
0,900,-101,11,-3,10,26,-5,33,20
30,78,-76,-1,3,3,21,7,107,55
43,-630,23,-11,2,-15,36,2,61,32
66,-1239,31,-2,7,-23,47,1,21,21
46,-1662,29,-11,13,-19,44,2,9,-2
25,-1765,25,-16,7,-10,25,3,5,-15
26,-1654,11,-5,-9,-18,-17,16,20,-5
22,-1348,5,-6,-9,4,-28,23,24,13
2,-825,0,-4,0,17,-24,23,34,-4
-41,-247,-12,-5,5,10,-8,17,7,-34
-63,439,-10,-1,7,14,-9,2,-17,-55
-52,1228,0,8,8,19,-30,-11,-34,-56
-47,1867,0,-7,20,24,-9,-22,-39,-57
-45,2074,12,-4,12,15,0,-34,-24,-58
-51,1916,11,0,-6,4,-36,-38,-14,-59
-57,1525,8,7,-10,8,-40,-24,-3,-55
-45,807,11,-2,-3,9,-29,1,0,-56
-24,15,11,3,6,8,0,26,1,-48
22,-677,16,3,12,5,34,29,24,-20
44,-1269,12,-4,12,-4,30,40,29,10
49,-1740,-1,-10,-5,-14,15,37,35,42
43,-1958,6,-15,-15,-22,-11,24,23,52
19,-1908,13,0,-5,-29,-24,13,25,24
26,-1713,18,4,13,-20,-18,-4,37,0
22,-1333,-31,9,11,-14,-24,-4,54,-12
-13,-784,-31,9,-4,-15,-32,3,32,-29
-33,-212,-10,6,-10,-6,-38,-6,25,-46
-24,494,-53,2,-8,8,-47,-7,-6,-33
-10,1217,-62,2,6,21,-35,9,7,-13
3,1667,-12,-15,5,7,-12,3,0,34
-1,1626,-15,-21,-12,-1,-25,-8,-25,73
-29,1327,-35,-6,-9,-4,-40,-7,-40,54
-36,701,-16,6,-6,-8,-31,-8,-37,21
-4,-192,-86,10,-4,-10,-11,-11,-26,-8
-6,-1063,-141,11,13,-27,-6,-5,-35,-40
8,-1793,-29,10,18,-28,28,-2,11,-42
35,-2403,-19,4,14,-12,61,0,36,-37
54,-2871,-108,9,28,-3,53,18,22,-24
51,-3064,-119,6,27,-7,40,23,8,-15
32,-2998,-103,-3,10,-19,26,13,-5,-25
21,-2776,1,0,9,-13,32,10,-5,-31
7,-2296,61,7,4,-13,29,3,5,-8
2,-1712,46,-2,-3,-22,8,0,-20,9
-9,-1079,58,-17,-9,-10,-10,-8,-43,-7
-56,-312,7,-35,-5,13,-11,-15,-55,-31
-92,381,-98,-27,0,32,-2,-29,-51,-36
-104,699,-41,-3,7,36,-4,-27,-31,-38
-77,618,48,13,12,34,4,-12,-14,-44
-38,336,46,-2,7,35,9,6,-4,-42
-20,-287,56,-15,4,31,10,18,14,-26
5,-1065,70,-21,13,20,15,33,33,6
23,-1735,65,-19,13,16,21,44,36,29
30,-2286,68,-4,-12,8,-9,41,17,46
37,-2728,76,7,-21,0,-14,30,17,51
38,-2969,64,12,-11,-8,-9,23,14,65
38,-2907,-28,8,-13,-8,-10,15,-12,70
33,-2637,-101,-5,-16,-18,-24,19,5,59
21,-2180,-30,-13,-31,-26,-23,13,20,29
9,-1537,25,0,-19,-10,-24,-8,17,1
2,-860,-5,10,-3,4,-28,-14,39,-21
-16,-79,33,14,-6,12,-21,-15,24,-26
-31,758,52,18,-8,14,1,-17,-2,-39
-35,1408,40,21,6,7,-22,-12,-30,-60
-19,1627,41,15,18,6,-9,-11,-56,-55
-7,1499,-26,11,12,-4,-20,-11,-52,-33
10,1103,-15,25,0,-4,-42,-17,-40,-24
-1,349,27,35,-8,-6,-43,-25,-53,-27
-22,-448,18,12,-18,-22,-37,0,3,-19
-8,-1099,17,-4,-15,-29,-28,16,35,20
9,-1643,28,1,-4,-17,-19,23,39,25
-1,-2082,29,-9,-4,-25,0,26,27,-4
-20,-2268,27,-12,-10,-24,17,36,44,0
-10,-2171,20,-9,-16,-22,17,50,30,12
-1,-1895,19,6,-9,-15,33,28,21,10
-12,-1396,32,16,0,-4,60,1,27,-12
-11,-780,26,8,-3,-8,43,-8,33,-22
3,-120,13,-3,-10,-17,23,-15,12,-12
10,729,-2,5,12,-12,0,1,78,-1
16,1558,-4,17,26,0,-1,19,122,5
3,2076,5,21,31,2,14,5,106,-10
-12,2149,-47,37,56,4,22,0,108,-31
-22,1949,-85,28,58,10,27,2,96,-36
14,1471,-1,32,43,20,27,14,84,-8
26,734,24,44,40,29,37,20,92,22
6,31,-25,30,24,12,44,14,67,19
7,-556,-76,1,-11,-12,36,15,-1,31
36,-1005,-1,4,0,-16,23,19,48,53
58,-1282,10,16,25,-19,29,35,101,53
58,-1301,12,0,31,-27,17,33,71,24
40,-1126,20,-15,7,-21,10,20,-19,0
23,-776,21,-20,-15,-18,15,32,-78,-18
1,-193,38,-12,-7,-11,-18,38,-59,-18
-7,424,42,13,37,8,-37,41,20,-14
-12,1137,21,9,39,13,-25,30,56,-20
-15,1960,10,-5,10,7,-10,22,8,-18
-19,2660,-2,-13,-21,7,-10,13,-64,-19
-5,2967,4,-5,-11,9,-14,13,-51,-24
0,2867,5,-9,-4,11,-26,0,-109,-22
15,2530,13,-2,-6,20,-17,0,-108,-21
46,1847,31,16,16,24,-27,7,-9,-15
48,1021,33,7,8,11,-26,11,19,10
53,311,21,-10,-2,-6,-16,40,91,41
55,-292,1,-4,9,-7,-1,57,176,25
41,-842,-36,0,11,-9,-4,33,140,7
31,-1147,11,-10,-12,-6,-11,13,23,-2
16,-1159,35,-12,-12,5,6,29,-34,-29
4,-990,33,-4,-3,22,30,36,3,-41
-21,-650,10,3,16,16,57,26,48,-38
-36,-139,9,10,20,4,50,0,44,-50
-27,388,5,3,17,-13,19,7,3,-31
-1,1060,-11,0,17,-11,-8,12,-12,7
-7,1769,-11,2,9,2,-8,-8,-30,-16
-18,2246,-17,6,-4,3,0,-22,-45,-28
-43,2265,15,12,9,7,21,-13,27,-28
-75,1960,22,8,1,10,22,-17,26,-33
-72,1383,11,-21,-32,5,12,-45,-56,-21
-39,479,-55,-31,-50,-14,6,-61,-149,-5
-22,-415,-138,-31,-50,-20,5,-47,-138,5
-7,-1163,-47,-28,-56,-24,-16,-30,-115,28
17,-1792,29,-4,-47,-29,-19,-10,-11,57
35,-2302,47,12,-25,-26,-4,11,77,67
38,-2553,33,10,-16,-17,8,12,75,20
30,-2531,24,15,-8,-17,-6,6,72,4
13,-2349,26,25,8,-8,-18,-2,64,18
-7,-1960,13,8,-2,1,-22,-29,-8,32
-24,-1436,11,3,-4,9,-25,-30,-39,60
-24,-809,6,9,5,4,-18,-5,26,80
-17,-34,-51,-3,-7,-1,-36,-10,23,59
-14,701,-153,-17,-10,4,-49,-21,0,23
-40,1113,-115,-24,-24,1,-39,-33,-69,-8
-38,1060,-93,-43,-66,-12,-45,-42,-181,-35
-20,804,-137,-30,-59,3,-15,-14,-116,-63
-12,266,-22,-3,-13,18,37,13,38,-70
-11,-513,22,-12,-24,12,22,18,-25,-64
32,-1190,26,-16,-33,6,1,30,-80,-35
