9,2202,-15,0,-4,12,0,-21,-19,-14
21,1892,-53,8,4,28,-16,-1,54,14
17,1280,-45,18,20,38,-2,20,106,33
24,443,-3,26,18,41,10,30,117,39
67,-347,56,20,18,31,27,30,134,42
92,-1054,49,5,0,10,13,8,64,47
63,-1668,28,-9,-29,-6,6,-14,-70,14
36,-2093,11,-34,-43,-20,4,-14,-98,15
6,-2222,6,-55,-52,-27,-8,-15,-111,24
-37,-2157,-38,-57,-31,-22,-13,-15,-86,28
-21,-1946,-10,-51,-9,-11,-4,5,-12,18
-8,-1515,20,-42,-6,-4,-5,1,-27,-8
-12,-994,-24,-19,-1,14,5,-2,3,-19
-24,-381,-14,-1,5,21,-1,3,84,-22
-47,309,32,-1,12,21,-18,-7,43,-43
-56,876,13,-11,-9,13,-25,-21,-54,-63
-40,1082,8,-20,-29,4,-27,-14,-103,-55
-8,935,2,-29,-42,-13,-17,-9,-74,-13
36,566,-11,-43,-49,-32,-22,1,-64,59
73,-138,-13,-59,-66,-39,-27,7,-69,112
87,-965,-45,-56,-74,-45,-25,-7,-56,120
35,-1708,-45,-27,-39,-36,21,-5,-48,71
-28,-2342,-31,-13,-20,-17,62,10,-46,14
-29,-2855,-88,0,-5,-17,45,15,-52,-25
-4,-3160,-11,10,-1,-6,26,19,-46,-29
4,-3149,-24,11,0,8,23,16,-81,-35
5,-2965,6,8,-10,0,6,2,-116,-21
5,-2578,-58,-1,-1,-16,-12,-14,-135,6
-12,-2015,-5,-9,9,-14,0,-21,-128,-7
-43,-1438,25,-18,7,-5,-2,-10,-59,-51
-70,-712,26,-10,0,12,-4,16,22,-51
-75,80,37,13,26,29,25,19,72,-43
-62,634,54,44,66,39,40,7,111,-51
-45,749,-4,51,81,35,36,12,165,-46
-40,530,14,29,54,20,29,28,140,-55
-33,67,33,5,10,6,22,25,39,-36
-7,-657,31,11,12,11,28,27,55,7
39,-1427,7,2,24,4,46,53,148,34
80,-2112,-74,-12,20,-28,37,66,186,62
128,-2682,-5,2,18,-40,2,55,151,60
123,-3157,58,16,21,-22,-3,53,108,21
80,-3391,60,23,37,0,8,60,111,0
41,-3316,45,20,41,11,9,64,77,16
36,-3099,40,18,38,-5,6,49,45,14
68,-2652,28,27,39,-14,23,27,8,-20
46,-2130,-65,24,31,-6,21,31,0,-21
-9,-1580,-119,7,16,0,30,52,9,-4
-40,-860,-36,0,1,0,2,60,102,-5
-72,-212,-27,-1,-2,-3,-7,22,66,-70
-115,113,-45,7,14,5,17,8,-40,-131
-115,65,-103,15,11,12,24,12,-59,-93
-80,-184,-105,27,9,8,25,-16,-29,-48
-58,-754,-15,21,12,3,36,-20,21,-25
-64,-1532,67,23,32,1,32,7,105,-8
-101,-2232,72,32,39,-3,27,26,109,-12
-64,-2778,77,28,39,-3,25,28,76,-13
-8,-3206,75,38,41,6,38,37,68,-17
15,-3515,57,34,48,7,47,40,30,-30
12,-3503,39,21,26,-4,32,17,-32,-16
14,-3240,39,12,23,-28,13,-8,-32,29
29,-2786,37,5,31,-23,15,-23,-38,72
20,-2135,41,9,26,-9,30,-9,6,82
-10,-1499,21,-15,-10,-4,15,-7,-63,44
4,-762,-1,-19,-19,2,11,0,-49,6
48,87,-21,0,0,21,19,0,34,-16
82,800,-87,2,-1,20,-1,-30,-67,-44
70,1118,-23,12,7,23,-6,-39,-82,-46
30,1077,24,13,12,33,-2,-25,-41,-36
5,759,14,0,-8,27,-9,-29,-93,-23
14,146,7,3,-4,25,-17,-29,-94,5
47,-524,13,13,-3,23,-22,-17,-106,41
61,-1046,23,28,5,10,-22,3,-39,58
14,-1475,24,20,-3,-9,-20,8,-27,62
-16,-1833,14,18,-32,-14,-10,-5,-109,44
-14,-1983,17,15,-27,-6,-5,1,-74,48
2,-1849,-28,2,-41,-19,2,5,-46,74
0,-1548,-95,5,-41,-13,-24,10,-25,78
-4,-1047,-19,0,-37,-9,-46,7,-16,67
-10,-424,12,-6,-40,4,-45,1,-28,37
-19,206,12,-1,-23,25,-29,-1,-39,29
-43,960,3,7,-20,39,-36,-11,-95,33
-46,1689,0,2,-19,43,-42,-26,-84,46
-31,2151,0,3,-20,33,-37,-29,-58,63
-12,2161,4,2,-31,17,-37,-35,-62,64
6,1898,7,-2,-29,4,-10,-29,-50,65
13,1337,19,1,-18,10,17,-32,-40,37
19,478,20,13,-14,14,16,-24,-53,25
30,-325,28,19,-5,20,30,-4,-28,49
6,-1022,33,22,0,30,48,26,17,60
0,-1622,29,17,-15,27,68,41,26,47
16,-2057,12,14,-15,8,76,36,28,28
24,-2215,-25,11,-10,1,70,22,49,29
24,-2131,-63,10,-17,-2,54,3,40,32
32,-1888,12,12,-17,-15,34,-5,6,28
9,-1420,30,23,-16,-15,29,-12,-26,29
-15,-870,21,13,-2,-1,20,-25,-7,12
-12,-242,25,11,-3,2,3,-33,9,-14
2,542,13,4,-3,8,-10,-16,13,-18
8,1204,-13,0,-3,9,-40,-13,18,-5
4,1515,-17,1,1,25,-41,-11,46,4
36,1431,6,-9,-16,17,-53,-17,20,21
59,1112,6,4,-22,-1,-59,-25,-46,12
43,490,10,6,-10,18,-19,-1,-35,18
49,-296,4,-2,1,13,19,18,15,80
47,-988,-3,-14,-1,-4,40,7,31,84
-29,-1582,3,-12,2,-7,28,0,32,28
-44,-2069,22,0,10,0,31,15,23,1
0,-2390,33,23,27,-1,29,31,15,0
13,-2396,42,23,26,15,29,21,22,33
25,-2174,27,14,10,17,23,8,52,57
70,-1739,18,4,6,2,15,-3,40,29
104,-1135,9,12,18,-5,-7,-22,8,-4
60,-535,24,25,32,12,1,-29,-15,-40
9,206,32,31,40,21,20,-28,-49,-62
-14,1013,12,21,28,18,27,-36,-58,-68
-38,1654,-9,11,5,3,17,-40,-45,-46
-33,1912,-10,-4,-7,-15,-2,-38,-29,-21
-34,1818,15,5,14,-11,-5,-38,-49,-50
-38,1477,25,16,33,6,11,-33,-98,-79
-42,837,22,8,21,13,27,-23,-62,-24
-42,163,25,4,10,0,33,-1,9,29
-44,-412,7,0,8,-8,37,43,47,50
-37,-891,-15,-10,8,-19,22,83,125,65
-34,-1269,-16,-14,9,-34,-2,87,197,41
-7,-1421,7,9,43,-8,3,83,262,18
14,-1300,0,16,46,5,1,69,237,-5
24,-1047,0,23,32,-6,-12,41,195,-17
26,-590,-32,13,3,-12,-29,19,93,-4
58,4,-37,26,-2,1,-12,13,93,19
82,592,43,33,3,6,-9,-2,121,40
71,1308,32,11,-8,0,-15,-33,53,35
43,2001,-24,-2,-32,0,-22,-59,-69,15
34,2413,-73,-3,-36,-10,-56,-57,-70,47
18,2387,-3,7,-31,-11,-28,-43,-35,60
-13,2094,13,12,-20,10,0,-18,-5,12
10,1536,24,4,-19,4,-14,-18,-10,-2
12,729,36,1,4,4,-2,0,46,0
-33,-85,43,2,-8,13,2,30,-29,-74
-32,-783,24,2,-20,8,8,48,-45,-85
8,-1356,21,-7,-20,-5,8,37,-24,-10
54,-1784,30,-16,-8,-11,8,24,-16,0
57,-1956,19,-24,0,6,31,24,-33,-25
61,-1899,25,-18,-4,24,55,-3,-76,-51
92,-1702,51,7,17,29,51,-42,-111,-61
107,-1267,26,15,34,24,44,-26,-101,-34
77,-766,-25,6,28,15,34,2,-55,-17
10,-195,1,-5,1,-3,22,23,17,-17
-88,473,-17,-32,-14,-18,0,24,44,-19
-145,1066,-38,-30,-6,4,-3,16,7,-32
-108,1316,-28,-21,-1,18,-9,3,-9,-9
-62,1205,-15,-23,-8,12,-32,-9,34,25
-33,847,-6,-23,-18,0,-35,-18,62,42
-10,154,-9,-21,-34,-4,-30,-14,33,58
2,-631,9,0,-26,14,0,3,23,52
9,-1325,29,20,-2,26,54,36,19,49
42,-1895,36,23,-8,15,34,50,74,70
81,-2350,55,12,-17,2,3,28,37,72
73,-2660,57,10,-19,-14,2,13,12,61
34,-2645,38,11,-22,-9,-7,20,5,73
30,-2386,44,19,-17,-14,-4,40,29,94
33,-1926,47,22,-10,-20,7,38,-4,70
26,-1303,40,12,-20,-26,11,16,-14,20
24,-629,42,2,-16,-17,-1,6,-6,10
20,182,8,1,-28,-26,3,-8,-41,22
18,1027,-6,1,-25,-23,-7,-17,-42,28
15,1681,13,15,-9,6,-30,-17,-35,17
10,1927,8,11,6,18,-31,-13,-21,15
-13,1886,-60,3,11,11,-25,-15,-28,21
14,1614,-72,2,15,11,-25,-14,-20,57
77,1036,7,-1,12,11,-12,-8,0,116
131,433,24,-1,14,10,6,-8,0,130
142,-71,37,-3,21,11,14,-1,-12,121
122,-484,33,5,20,8,12,-11,-16,104
46,-778,27,12,3,10,0,-17,-50,69
-48,-822,35,7,6,23,3,-5,-46,31
-71,-568,51,27,22,31,11,9,-41,1
-35,-75,35,33,4,19,10,23,-5,19
14,593,14,11,-14,12,19,49,57,60
41,1313,-27,-1,-19,13,21,61,41,62
39,2076,-52,0,-16,10,0,50,70,64
12,3363,6,-4,-22,0,-23,37,81,64
-17,4723,4,2,-23,1,-18,22,45,54
-30,5212,-16,5,-29,6,-13,19,19,33
-22,5049,-23,-1,-36,-9,-15,0,20,31
-26,4558,-22,0,-35,-18,6,0,27,33
-27,3889,-15,3,-24,-21,29,0,31,32
-14,3038,11,5,-2,-8,38,-1,16,11
-14,2225,29,17,44,14,57,7,12,-30
-16,1580,31,26,60,30,42,15,-15,-63
8,1038,42,32,69,44,34,20,-21,-60
44,580,33,18,52,49,32,21,18,-17
66,449,8,19,25,27,10,19,0,18
55,552,15,3,18,1,-26,10,-31,32
55,888,16,-5,17,-11,-47,1,-23,39
62,1400,19,0,15,-20,-50,-11,-22,20
74,1851,15,0,19,-15,-41,-23,-38,-5
61,2382,-17,-3,11,-1,-32,-24,-30,0
25,2982,3,5,13,4,-27,-14,-15,13
-27,3434,11,11,18,19,-23,4,4,-2
-76,3521,14,11,16,24,-19,25,-8,-37
-114,3232,15,18,11,27,-24,30,-5,-38
-110,2721,15,12,-1,28,-15,28,24,-8
-58,1909,10,8,-7,10,-9,32,21,30
26,912,7,-1,-13,-18,-13,18,38,99
76,-36,10,-5,-10,-18,-5,35,33,148
91,-771,29,12,5,-1,44,54,63,117
73,-1401,39,30,24,18,66,75,93,50
18,-1831,37,30,22,13,66,68,47,-32
-62,-1921,21,13,3,-5,41,45,-6,-75
-107,-1823,10,22,23,-13,49,35,53,-41
-94,-1503,-3,25,22,-11,29,30,38,-2
-75,-1010,-28,17,-2,0,-3,15,-49,-8
-61,-491,-39,23,-5,-3,-7,-5,-67,-22
-44,156,10,16,-8,-4,-7,-16,-56,-51
-45,819,-3,16,-4,17,6,-6,-42,-141
-29,1248,-54,17,18,35,42,5,3,-168
-9,1281,-144,18,34,58,71,18,85,-87
-26,1025,-91,31,28,60,62,9,69,-52
-62,534,-69,23,-6,32,51,-5,-6,-16
0,-221,-89,10,-22,0,43,18,35,35
66,-974,13,11,-13,-10,33,11,10,28
72,-1591,46,19,1,-5,30,-10,37,1
67,-2094,51,23,10,-6,21,1,88,6
35,-2509,36,7,-5,-13,26,28,66,12
0,-2609,25,-2,-21,-12,36,36,84,22
-15,-2472,12,-8,-25,-23,24,21,27,23
-12,-2145,12,2,-12,-29,6,9,-12,35
-9,-1580,-56,10,-3,-18,0,2,13,43
-15,-893,-130,18,-1,11,2,-1,-13,34
16,-124,-42,19,26,17,-15,0,40,30
45,768,12,26,47,9,-43,-9,47,17
50,1604,-35,24,39,-7,-77,-25,16,6
62,2097,3,40,49,1,-85,-40,42,7
-14,2032,39,20,5,-9,-110,-79,-107,-44
-12,1617,33,13,-4,-14,-120,-58,-73,-3
29,1336,47,15,-16,-29,-117,-43,2,78
47,1002,39,19,-15,-43,-95,-51,10,111
45,537,34,12,6,-34,-68,-32,66,92
61,163,65,8,12,-38,-58,-13,135,76
51,-104,-30,-30,-24,-44,53,5,78,40
38,-86,-107,-45,-13,-38,101,40,45,22
55,231,-31,-9,30,-4,51,57,112,50
49,774,-2,-44,-6,12,5,26,71,60
28,1430,-43,-70,-28,2,3,15,57,49
-9,2158,19,8,0,1,7,-12,65,17
-16,3138,40,59,-3,-2,-6,-72,-90,-4
44,3930,33,48,-11,-49,-83,-90,-111,19
69,4389,-20,23,-1,-73,-118,-75,26,8
26,4430,-22,7,11,-50,-60,-30,55,-29
-62,4125,34,0,24,0,-33,-6,3,-68
-131,3569,49,11,41,51,37,11,11,-137
-144,2702,56,29,58,120,101,40,-10,-148
-112,1735,64,47,76,162,85,40,-46,-103
-70,869,76,47,80,172,97,29,6,-69
-37,69,73,29,47,136,162,39,-52,-51
23,-587,73,27,36,72,186,47,-135,-18
46,-840,52,21,33,-3,158,55,-147,-5
40,-354,24,1,38,-5,117,51,-131,-4
-3,164,1,-15,34,5,58,61,-42,-10
-47,619,8,-26,40,-30,-15,80,128,-47
-43,1131,12,22,77,-64,-106,64,151,-50
2,1797,34,122,124,-87,-226,13,48,3
93,2618,36,138,174,-134,-374,-41,40,66
159,3334,15,107,213,-169,-503,-61,82,119
233,3767,-26,30,135,-244,-612,-69,77,162
251,3851,-87,-59,30,-306,-712,-90,60,185
137,3913,-41,-6,-12,-308,-764,-114,102,100
8,3782,15,86,-94,-238,-630,-113,81,-17
-94,3140,13,42,-140,-39,-369,-76,45,-93
-97,2380,112,29,-110,157,-157,-58,23,-88
-109,1654,115,18,-115,385,413,30,-48,-45
-109,1036,-35,-86,-82,395,803,185,-101,-43
-114,825,-150,-110,-39,166,525,178,72,-36
-23,604,-22,-75,-37,122,405,142,0,-34
71,1072,44,-50,-18,125,343,118,62,-14
77,1786,33,-54,-34,163,334,53,-58,1
24,2683,35,-50,-34,172,299,13,-114,44
-54,3427,47,-31,-15,126,246,19,-32,59
-111,3915,-14,-26,-17,79,203,28,12,29
-128,4110,-2,-21,-17,58,139,20,41,54
-83,4014,30,-20,-21,43,94,23,80,40
-54,3752,54,-7,-20,56,117,33,33,-72
-23,3452,75,0,-23,61,95,54,-17,-105
81,3227,93,-7,-11,35,-3,43,-8,-42
176,3102,87,-11,37,-24,-131,-1,70,79
168,2944,75,-5,52,-75,-214,-39,79,142
100,2811,27,-39,45,-96,-235,-49,17,124
10,2662,13,-60,75,-76,-191,-2,100,62
-22,2515,47,-4,53,-88,-188,-45,19,-11
-56,2373,67,71,-11,-123,-295,-144,-150,-74
-98,2221,2,82,-14,-60,-191,-123,-156,-117
-99,2097,-64,78,13,57,136,-5,-89,-143
-122,1975,-107,24,1,183,373,86,-29,-150
-128,1860,-97,47,39,231,364,94,20,-133
-96,1737,-61,90,83,216,333,112,49,-76
-34,1634,9,82,73,153,305,90,41,-27
23,1548,134,28,-12,53,195,30,-42,39
79,1439,93,-40,-84,-22,72,-10,-151,96
94,1336,66,-51,-74,-29,63,-27,-165,102
44,1259,54,-36,-43,-19,70,-50,-180,20
-8,1179,44,-11,-24,-4,59,-65,-165,-92
-54,1098,21,-3,-7,7,74,-15,-2,-100
-29,1025,6,-5,-24,-8,63,30,14,-14
51,919,76,113,-9,-39,16,23,37,54
53,846,149,234,14,-64,-22,-31,-2,86
-25,837,124,211,21,-66,-42,-52,-9,37
-89,816,53,105,17,-48,-39,-41,-49,-103
-67,780,34,60,65,-38,-59,-64,-108,-147
-41,749,-1,71,150,9,-51,-39,-46,-143
-41,707,-149,0,118,9,-79,-20,17,-95
-56,681,-127,-51,125,15,-92,-14,59,-114
-96,647,-80,-55,177,8,-86,-45,-26,-128
-106,595,-107,-89,134,4,-86,-60,-61,-19
-121,554,-156,-115,90,8,-88,-27,20,35
-110,520,-170,-119,46,35,-60,20,95,-4
-43,497,-174,-160,-112,80,41,59,41,1
-40,466,-92,-108,-168,109,126,41,-94,-11
0,443,88,16,-179,53,113,25,-92,-4
51,417,131,26,-176,-1,88,34,-32,39
57,366,111,-8,-119,-14,42,10,-30,32
76,344,97,-9,-61,-22,10,-10,21,52
73,325,78,-2,-35,-19,2,-12,66,56
114,303,48,0,-20,-28,39,16,142,55
177,286,45,-13,-24,-63,11,27,98,54
162,286,43,-23,-16,-90,-39,11,68,64
107,263,-10,-57,-46,-128,-73,-12,17,101
80,249,-45,-76,-53,-130,-92,-29,80,129
11,240,-55,-54,-40,-101,-118,-55,62,43
-32,231,-23,-18,-20,-56,-130,-60,41,-20
-71,213,-12,21,1,34,-57,-49,-15,-41
-93,196,6,59,23,105,-7,-46,-75,-59
-47,154,34,75,31,90,-8,-40,4,-3
36,43,46,51,37,28,87,53,74,120
88,-223,80,35,38,-46,166,128,45,120
34,-581,109,64,56,-79,49,93,14,46
-111,-990,89,66,94,-65,-83,49,-59,-112
-153,-1570,65,61,123,-51,-152,48,6,-141
-105,-1958,57,64,103,-79,-228,27,-2,-86
-31,-1600,79,77,97,-130,-340,22,59,-34
51,-1172,95,81,100,-152,-400,13,135,32
83,-988,86,80,88,-116,-369,-32,14,70
49,-827,-17,42,42,8,-233,-75,-123,34
1,-652,-192,-26,-21,61,-142,-93,-151,-22
14,-282,-155,-43,-23,32,-142,-65,-29,29
46,21,-9,-9,-12,15,-99,-50,3,64
-7,181,0,-16,-34,36,63,-29,-65,-4
-116,336,-65,-74,-61,173,416,43,-91,-115
-169,400,-122,-128,-81,253,657,132,-146,-167
-50,53,-62,-89,-36,161,437,163,15,-30
44,-661,-16,-68,-2,113,334,118,0,72
106,-1714,-1,-29,70,95,259,68,54,118
150,-3370,2,-14,103,8,131,45,85,138
151,-5615,-40,-23,75,-61,72,60,108,122
88,-6729,-137,-26,42,-77,5,27,88,79
72,-6774,-96,-20,-22,-57,32,-7,-22,46
75,-6346,46,0,-37,13,246,96,87,99
25,-5314,87,31,-52,32,272,123,93,143
-29,-4261,74,-1,-81,0,159,40,-75,80
2,-3996,53,-14,-37,-23,37,-7,-109,25
67,-4379,28,-3,1,-47,-14,3,-23,22
77,-3744,64,11,23,-35,-46,-6,42,-52
93,-2033,69,26,27,-4,-79,-10,11,-71
65,-684,40,17,24,-7,-112,-16,50,0
-114,371,-21,8,-9,3,-27,-14,-53,-95
-222,779,-80,12,-12,14,38,-11,-126,-138
-182,931,-41,4,-4,27,81,11,-67,-50
-147,1260,11,18,14,46,129,38,-65,-116
-130,1658,45,41,41,56,141,67,24,-163
-68,1520,13,23,19,46,140,70,114,-39
-2,680,-14,-8,-34,31,182,56,58,49
12,-646,-8,-17,-53,21,224,53,-27,-9
6,-793,7,15,-35,39,203,41,-60,-79
6,456,-6,22,-15,62,208,34,10,-65
22,1617,13,27,-16,24,122,-12,-53,-6
24,2741,43,22,-9,-9,43,-38,-92,69
92,3231,43,-29,-24,-40,4,-35,-79,147
103,3238,-72,-102,-43,-50,-22,-38,-95,194
69,3078,-146,-118,-58,-57,-46,-40,-94,217
95,2900,-96,-90,-64,-70,-86,-33,-45,211
84,2732,-155,-73,-75,-90,-130,-26,35,190
-58,2557,-135,-26,-39,-83,-150,-11,83,95
-138,2047,-16,16,19,-38,-129,28,111,12
-117,-237,10,38,51,-37,-124,55,166,-27
-35,-2318,34,40,58,-75,-192,54,180,-36
29,-2837,80,42,51,-143,-311,9,96,-68
21,-3045,56,22,41,-181,-308,-29,-37,-151
-28,-3024,41,103,55,-160,-186,-35,-126,-188
-27,-2818,90,227,71,-174,-241,-37,-134,-143
-46,-2286,100,204,49,-188,-342,-33,-83,-83
-69,-1528,41,85,18,-105,-316,-52,-83,-149
-77,-573,-35,-28,1,77,-178,-113,-113,-192
-54,-364,-97,-86,1,269,75,-100,-160,-205
-1,-846,-136,-113,-11,357,367,-9,-103,-159
55,-77,-135,-122,-35,290,497,104,55,45
36,1105,-128,-110,-64,143,296,88,74,132
-19,1897,-34,-68,-70,104,298,69,18,57
-48,2052,122,-51,-54,135,495,114,1,1
-4,2031,99,-9,7,158,409,73,-39,-48
47,1635,46,0,31,97,221,30,-23,-10
37,155,25,-22,20,32,154,36,29,7
51,-1387,23,-35,0,9,170,52,59,-15
89,-2307,35,-22,-15,20,155,70,67,-45
106,-2709,7,-21,-31,-5,95,62,49,54
111,-3081,11,-6,-23,-11,63,51,64,145
106,-3732,45,12,-16,-12,38,38,57,103
73,-3978,57,21,-23,-7,19,31,28,17
11,-3441,54,19,-21,-1,3,25,59,1
-7,-2459,55,3,-4,7,-52,17,96,27
28,-1553,63,26,51,-19,-205,-12,169,53
57,-635,40,20,57,-46,-300,-60,200,68
96,-38,-1,-57,-8,-119,-351,-88,171,55
125,781,-21,-104,-55,-190,-375,-91,60,75
162,1313,-30,-71,-52,-218,-429,-102,-12,160
154,-117,-70,-48,-19,-181,-427,-114,18,233
77,-1254,-134,-53,-9,-58,-75,-13,76,287
1,-957,-136,15,-14,54,230,110,92,184
-87,-837,-110,114,-40,115,240,86,-2,-18
-54,-533,-13,156,23,191,274,58,72,-71
-20,-116,135,149,56,217,347,81,45,-8
-22,-11,135,59,37,175,292,53,-85,-44
21,39,34,-26,32,56,190,42,-98,-32
-19,428,-6,-76,13,-10,140,20,-87,-97
-109,1076,-36,-51,14,31,145,37,-73,-165
-116,1928,-27,-27,-4,48,133,65,1,-26
-106,1737,21,12,25,67,115,83,49,18
-93,-625,24,17,48,79,130,105,38,-32
-65,-905,52,47,67,83,112,67,-50,-82
-10,1205,46,42,47,46,17,39,-66,-51
49,3170,19,46,28,-11,-58,17,-5,26
117,3794,39,57,31,-53,-98,4,15,73
164,3796,20,42,9,-81,-139,-8,6,113
118,3579,-44,29,1,-54,-153,0,-34,92
10,3329,-35,42,47,13,-116,12,-5,29
-66,3051,26,90,97,55,-126,-14,-15,-14
-145,2714,30,103,99,112,-68,-39,-69,-75
-107,1957,14,49,54,162,78,-7,-54,-104
-43,906,11,9,16,122,107,6,-27,-104
-44,30,-42,-32,0,73,115,53,90,-111
-76,-690,-99,-100,-39,64,144,117,120,-106
-60,-1001,-136,-140,-59,74,247,159,113,-36
12,-717,-114,-113,-56,16,259,172,199,51
71,-92,-27,-6,-16,-83,126,99,155,92
87,244,14,37,60,-63,57,48,166,71
43,-167,-58,19,101,22,62,63,196,37
39,-3978,-69,12,108,61,22,49,168,40
81,-8923,18,-2,81,53,-12,52,193,109
118,-9707,31,-23,18,1,-71,30,205,201
156,-9167,68,-25,-20,-35,-95,0,85,192
198,-9408,137,6,-12,-55,-115,-28,-57,79
209,-9795,172,45,13,-64,-106,16,3,62
204,-10204,163,31,19,-93,-131,97,189,192
99,-12073,138,-3,-5,-119,-145,104,198,136
36,-13288,121,0,-30,-92,-111,106,78,-23
21,-12768,144,41,-29,-41,-94,120,57,-73
31,-12010,149,63,-6,-8,-98,129,136,-35
31,-11267,113,45,22,41,-58,119,140,-16
-44,-10505,-3,-49,9,153,161,116,67,-10
-170,-9402,-106,-134,-16,214,290,97,-119,-31
-189,-7590,-68,-96,1,128,113,67,-176,-2
-138,-5495,-15,-39,21,30,25,74,-193,-39
-157,-4144,5,29,63,-25,-95,83,-179,-96
-136,-3767,-54,46,55,-119,-240,67,-95,-87
-18,-2861,-143,3,19,-187,-317,21,-36,-32
47,-3155,-61,1,95,-147,-375,-7,22,-68
47,-5304,26,88,162,-70,-409,-29,16,-117
18,-7013,-18,126,131,92,-148,17,14,-85
38,-5634,-54,8,36,239,318,138,74,70
69,-3387,-17,-106,-97,129,387,179,29,144
49,-1807,107,-5,-106,-54,205,145,-77,18
76,-2856,222,156,-58,-80,121,145,-38,-64
124,-4144,158,86,-30,-6,165,214,110,-22
132,-3754,97,-67,-63,15,149,241,124,71
163,-3091,20,-148,-116,-45,38,196,48,235
195,-2519,57,-106,-74,-38,24,195,45,300
176,-2807,132,-20,1,-33,-26,196,14,198
157,-4245,58,-11,-2,-76,-81,171,35,254
89,-3671,-78,-97,-78,-88,-120,102,38,309
-8,-1774,-96,-135,-86,-8,4,86,5,61
-126,-563,-83,-79,-4,123,210,154,38,-181
-172,-690,-8,5,89,167,200,168,26,-259
-121,-847,71,61,108,75,30,104,-92,-204
-80,-1394,81,68,67,-13,-47,41,-174,-142
-70,-1958,114,67,59,-23,-74,18,-167,-96
-80,-2245,106,80,87,-3,-77,37,-79,-89
-133,-2424,18,36,77,44,153,105,30,-116
-147,-2053,-136,0,62,142,476,171,21,-124
-116,-2174,-111,-7,50,152,345,132,-85,-113
-68,-2736,-5,2,76,164,171,72,-138,-97
-24,-3069,12,20,120,216,84,33,-125,-46
-4,-3440,-15,-2,133,199,14,30,-73,17
-3,-3245,-64,-39,126,114,19,34,-38,43
7,-2637,-152,-58,120,-10,-36,5,10,28
23,-2097,-184,-91,60,-80,-126,-38,-22,28
8,-1125,-161,-108,6,-2,-65,-37,-17,44
23,-97,-127,-87,-11,91,114,29,117,56
90,622,60,22,-4,65,220,72,136,55
110,-42,298,138,-47,-77,143,78,47,88
169,-1207,271,155,-64,-147,-4,76,18,165
210,-1710,156,116,-49,-138,-63,46,54,215
184,-2126,90,70,-36,-106,13,65,66,206
132,-2291,25,37,-13,-60,61,70,116,159
75,-2193,-150,-39,39,19,87,64,159,80
-19,-2194,-275,-112,26,89,141,117,108,45
-1,-2087,-192,-96,80,137,160,140,-8,21
-6,-1953,-162,-71,192,187,127,74,-137,-80
-143,-1837,-88,-50,113,120,24,-24,-205,-173
-223,-1735,130,103,41,-70,-179,-132,-226,-245
-93,-1646,171,204,-36,-225,-236,-157,-145,-149
-39,-1552,137,67,-122,-79,134,-40,36,-23
-40,-1440,96,-13,-56,51,216,17,112,86
17,-1326,72,68,16,11,-20,-35,152,144
10,-1212,8,83,83,21,-23,-42,87,22
-30,-1094,-29,16,65,-5,51,-6,55,-110
-25,-912,-15,31,69,-59,-19,-22,96,-87
-103,-823,-28,3,60,-52,-10,-14,88,-29
-167,-915,-2,37,50,58,118,44,0,-25
-130,-1003,85,192,45,116,169,79,-29,-52
-58,-995,140,205,3,134,149,80,-42,-46
70,-929,227,281,-21,131,131,81,-54,-25
163,-881,198,312,10,64,35,92,-29,-35
115,-826,202,283,93,-57,-146,78,-27,-116
87,-766,186,211,191,-171,-323,20,85,-109
102,-719,88,59,190,-275,-333,22,190,66
151,-656,17,-50,123,-350,-265,69,269,259
125,-608,-156,-232,90,-230,-99,140,212,210
54,-566,-301,-346,113,74,105,240,177,103
92,-525,-275,-268,163,267,156,197,164,94
147,-476,-176,-221,84,283,319,146,73,175
134,-436,-77,-134,-18,176,376,151,-6,115
55,-411,-214,3,-83,132,443,197,-71,25
81,-384,-231,12,-122,-32,299,194,3,87
63,-370,-12,-25,-148,-192,105,98,46,128
50,-352,243,71,-55,-227,-52,-76,41,163
46,-326,272,132,74,-136,-97,-134,-34,108
54,-304,211,142,20,-62,-3,-61,-140,16
57,-285,219,246,-28,-44,7,-54,-207,-68
33,-255,277,255,-113,-96,-29,-68,-131,-100
102,-217,184,65,-208,-132,125,-27,-118,-10
165,-195,52,-43,-273,-143,97,-83,-94,167
155,-129,-128,90,-169,-148,-111,-167,-85,208
104,10,-166,339,164,-121,-149,-147,-174,35
-54,1033,-182,476,405,-88,-129,-116,-209,-203
-165,3233,-307,378,479,-25,-136,-66,-46,-250
-196,4167,-288,193,367,28,-155,-73,30,-236
-157,3178,76,-48,32,32,-117,-85,-84,-197
-67,2456,367,-138,-233,13,-24,-107,-178,-128
179,2521,444,-40,-339,-17,-23,-111,-120,78
248,3037,259,-67,-191,84,113,11,4,192
203,3127,80,-123,-53,198,465,194,93,204
174,2606,16,26,53,174,597,190,44,88
90,738,47,338,62,41,521,116,-53,-10
117,-1322,147,436,-21,-82,305,71,-73,46
79,-1676,122,310,-59,-124,99,-70,-92,-16
-43,-1613,-8,222,39,-87,0,-215,-160,-163
-222,-1510,-274,79,413,173,108,-76,-124,48
-148,-1420,-173,-71,313,243,201,49,-21,197
25,-1317,-18,-16,213,208,149,93,94,90
112,-1161,267,303,147,83,-2,35,154,-111
80,-563,528,444,26,-75,-199,-13,129,-203
40,771,380,330,-11,-200,-306,-61,118,-85
126,1695,0,266,112,-207,-326,-105,53,211
20,2291,-319,449,340,-52,-219,-159,-79,205
-226,2512,-438,686,571,169,10,-144,-215,-82
-374,512,-697,340,497,280,177,8,-186,-261
-420,-798,-663,-154,180,288,353,189,-72,-292
-357,-1261,-23,-269,-40,76,311,134,-59,-284
-246,-1191,592,79,277,-81,-4,-103,-145,-327
-92,-859,393,84,549,33,-62,-65,-58,-196
-21,-479,-273,-270,582,246,-35,33,126,-23
40,176,-615,-435,266,227,-20,37,116,101
105,591,-439,-258,-117,113,68,-10,57,125
172,-86,73,275,-312,-48,107,-154,10,145
61,25,432,483,-265,-56,220,-184,-51,127
-96,1751,394,343,-126,93,328,-51,53,74
-100,2690,141,99,-93,185,208,38,249,92
9,3451,265,-24,-243,-43,-68,-44,187,179
168,4531,531,-13,-353,-223,-149,-64,134,226
273,5129,574,-228,-379,-229,-271,-74,120,202
396,4937,371,-264,-358,-301,-469,-87,123,280
481,4480,39,-220,-314,-242,-494,-51,157,258
266,3554,-199,-158,-157,11,-198,-101,73,-124
-130,2008,-553,-267,-6,224,20,-130,-80,-440
-383,570,-878,-321,164,474,438,2,-78,-354
-412,575,-695,-309,117,644,443,9,-61,-191
-463,978,-621,-385,-127,812,560,-118,-237,-290
-392,480,-653,-89,-216,1064,1332,22,-172,-394
-186,894,-225,497,-229,943,1477,238,-63,-76
-18,1538,280,813,-193,371,779,217,91,323
-140,1993,216,574,109,-54,-119,-38,67,253
-454,2470,295,416,521,-306,-634,-409,-255,-308
-561,3518,656,205,793,-322,-503,-528,-385,-620
-173,4565,586,-107,707,-144,17,-198,-194,-385
297,5722,306,-483,345,34,609,242,172,54
593,7402,322,-474,-21,72,802,458,601,432
716,9376,381,-158,-276,-123,341,407,650,625
640,11116,86,421,-119,-305,-77,309,586,621
466,11868,-183,680,67,-449,-293,266,622,670
263,11889,-387,741,106,-529,-308,142,452,521
119,11509,-510,653,349,-287,-271,58,244,264
156,10705,-53,1154,833,-109,-725,-104,117,191
325,9710,400,1442,1095,-213,-1146,-240,153,270
350,10067,114,715,790,-319,-1019,-192,290,310
-46,9610,-660,54,407,-163,-649,-143,236,204
-507,9195,-773,205,34,35,-368,-336,-178,-157
-423,9029,265,399,-522,155,157,-278,-227,-193
-17,8744,1037,-1,-788,176,919,296,237,243
170,8233,1005,-575,-627,116,1081,597,478,460
229,7739,886,-569,-108,106,561,391,285,351
254,7293,723,-465,187,341,350,169,56,85
101,6483,329,-887,-187,470,951,320,77,-136
78,5779,179,-1205,-568,352,1092,436,252,15
426,4859,207,-1102,-555,103,611,366,395,380
553,4454,145,-742,-261,21,27,103,126,358
461,4449,-524,-533,159,139,-66,24,-21,251
179,4351,-899,-58,435,269,99,164,40,89
-232,4288,-747,526,182,-20,13,243,139,-56
-661,4228,-655,560,-222,-135,316,68,-80,-331
-465,4309,-62,441,-663,-24,774,12,-38,-232
111,4175,283,129,-1015,-223,526,192,351,363
332,3969,517,-166,-855,-278,273,61,175,411
297,3781,844,-8,-403,20,103,-249,-278,14
315,3574,523,-81,-61,364,228,-206,-287,-132
393,3382,-56,-406,9,496,264,-20,-7,179
424,3201,-409,-438,-172,393,172,66,259,577
274,3009,-794,92,-71,239,49,-57,176,427
-234,2832,-1035,220,292,337,142,-196,-57,-126
-622,2662,-949,361,807,501,41,-375,-370,-529
-527,2512,-512,977,1422,596,-37,-261,-239,-279
-467,2363,330,1231,1509,552,-11,-215,-153,-145
-104,2218,664,740,852,280,-76,-125,60,98
363,2086,703,-356,-393,-115,-96,95,462,609
626,1955,781,-838,-849,-228,-4,206,645,940
297,1830,503,-508,-506,-152,-611,-8,140,289
80,1708,176,-443,-170,-160,-863,-8,187,174
-181,1582,159,-182,247,-117,-1228,-457,-146,-112
-395,1444,243,298,468,212,-1085,-631,-344,-277
-249,1300,132,942,332,574,-385,-396,-262,-198
-128,1105,-394,1524,51,506,313,-82,-172,-143
-297,823,-549,1765,239,105,-10,101,-5,-150
-577,808,136,1720,193,-279,-801,-186,-133,-374
-566,599,670,332,-288,-317,-394,-457,-516,-681
-328,-248,410,-1412,-853,-153,448,-315,-508,-578
-183,-1801,60,-2258,-1109,114,849,37,-193,-258
-51,-3559,-1,-2206,-1184,458,1327,379,131,171
195,-4956,261,-1627,-850,711,1406,525,361,567
324,-6182,447,-879,-248,657,909,366,279,429
261,-7489,145,-664,-41,364,256,59,264,276
134,-8308,-201,-595,29,254,26,-63,336,187
110,-8173,-148,-264,57,212,-62,-20,377,175
-84,-7401,37,837,588,63,-831,-347,138,-58
-156,-6477,-619,1544,1363,18,-1324,-639,-82,-147
114,-4861,-1445,1353,979,-235,-1421,-490,181,186
296,-2399,-1602,1696,496,-321,-1416,-285,345,369
-221,-739,-644,2894,512,-360,-1346,-671,-338,-229
-886,198,631,2666,-41,-124,236,-756,-961,-764
-750,1394,1085,553,-555,152,920,-367,-591,-258
-174,3040,826,-576,-444,265,552,18,65,359
178,3795,258,-1079,-55,584,823,256,246,346
235,3979,281,-1653,-121,701,965,260,-9,1
528,3911,765,-1340,-229,558,1007,463,128,273
907,3754,1090,-874,-606,-85,229,418,389,788
607,3455,705,-492,-441,-377,-654,101,154,388
427,3129,-51,-387,163,-293,-912,211,362,266
147,2359,-847,-716,730,345,-861,178,422,190
-157,1365,-1837,-925,1148,1093,135,97,84,-65
-324,516,-2318,-730,1082,1052,1430,298,-91,-188
-248,133,-1543,-247,263,411,835,228,-77,-98
-43,-503,227,76,-647,-234,138,157,-28,30
-171,-1301,1783,-103,-531,-427,-276,-32,-241,-119
-187,-1206,1578,-575,-196,-252,-435,-82,-248,-168
15,-416,1115,-856,-681,-242,-136,161,51,68
345,338,828,-1083,-1179,-505,-72,301,387,460
536,91,678,-427,-693,-503,-600,-78,205,432
342,58,663,-17,-104,-36,-567,-199,2,235
69,595,20,-752,-466,19,-466,-109,80,289
92,614,-286,-588,-589,22,-546,-81,148,422
465,262,-28,500,-580,-156,-414,-207,138,289
97,-306,-147,1482,-506,-193,98,-184,-157,-208
-979,-6,-831,1275,-482,-237,446,-323,-662,-834
-1227,1200,-543,1546,273,44,261,-625,-924,-921
-568,1675,424,1570,1004,506,361,-263,-397,-404
41,1869,819,404,692,433,583,300,272,205
-29,1771,839,-604,106,84,284,316,317,335
-116,1743,661,-1867,-300,-55,82,213,150,209
232,1891,451,-2026,-321,-249,-379,72,102,195
549,1664,335,-1411,-280,-207,-351,59,70,161
770,146,420,-784,-199,-133,-351,-17,154,293
497,-310,268,-597,-39,-96,-693,-123,253,463
314,494,43,-528,6,-185,-934,-302,184,633
470,709,-22,-296,53,-463,-1451,-543,105,712
68,657,-492,-340,239,-452,-1490,-549,18,393
-266,887,-1106,145,867,-240,-1205,-429,-189,-155
19,923,-1522,1341,1186,-203,-1280,-226,-65,-122
-78,764,-1859,1828,659,-622,-1593,-377,-62,-210
-609,1062,-1332,1591,-157,-761,-1079,-663,-568,-652
-437,1464,-8,811,-298,-296,-114,-615,-689,-417
208,1525,838,-450,-604,232,1223,-36,-142,212
477,1516,1097,-1349,-888,302,1885,548,239,298
130,1411,1202,-1127,-493,303,1590,558,106,-166
-270,1242,870,-512,-226,194,688,31,-360,-501
-322,1276,324,-1,-25,6,140,-252,-326,-146
-215,1462,-56,586,334,-166,-124,-346,-325,0
-359,1396,-756,1039,262,-123,-66,-233,-371,-187
-415,1324,-465,1252,36,-345,-349,-501,-672,-689
-153,1274,-726,516,-213,90,161,-107,-419,-584
194,1220,-1044,177,-308,537,878,366,21,115
175,1167,-270,588,7,278,343,-61,-142,319
-605,1126,740,289,272,-189,-328,-368,-368,-254
-582,1063,1330,-497,84,-170,-162,135,122,-61
209,984,685,-765,-448,-286,-508,223,511,600
193,864,-124,-471,-742,-497,-657,-184,106,453
-149,679,-55,-262,-413,-357,-204,-154,-132,23
75,643,384,-374,-173,-86,320,225,84,65
783,629,565,-790,-150,-48,438,387,236,417
1215,394,406,-1127,-49,-174,267,388,415,759
738,-301,136,-954,70,-176,201,430,476,407
55,-1107,85,-444,-202,-334,-376,272,370,72
-284,-1091,96,-133,-547,-398,-894,-83,103,-24
-664,-1445,32,449,48,-119,-811,-394,-387,-446
-904,-2368,-256,1027,1175,187,-1053,-548,-487,-440
-645,-3840,-1060,434,1179,99,-1010,-261,-74,-50
-190,-4790,-1608,-112,360,-279,-403,291,400,337
-305,-4648,-916,70,-200,-633,-282,125,168,65
-446,-4589,-158,-202,-486,-432,325,-68,-179,-179
-28,-4233,651,-690,-449,0,552,-74,-232,110
243,-2623,751,-748,-122,299,472,-134,-345,-35
217,-1723,477,-828,-188,224,162,-69,-209,-58
187,-2267,149,-569,-110,37,-94,10,132,350
155,-2998,-314,12,22,120,204,-40,1,255
17,-3534,-213,823,288,325,541,3,-109,-9
141,-3760,193,1108,91,77,298,-7,-57,200
185,-3972,616,980,-185,-214,96,-209,-297,-38
25,-3910,803,600,-310,-340,0,-492,-639,-535
-271,-3629,566,247,-318,-306,41,-320,-384,-342
-365,-3031,436,-330,-344,-161,214,106,37,-156
-78,-2081,306,-729,-398,-258,54,283,198,-57
144,-1233,-391,-368,148,-128,-132,208,157,115
259,-572,-900,819,688,113,-146,19,-59,33
68,-40,-1000,1147,456,-108,-676,-331,-268,-56
-330,362,-815,561,695,-389,-1279,-647,-483,-55
-16,899,-592,689,1035,-216,-1501,-261,112,744
98,1104,-1009,235,582,-93,-2123,-335,246,738
-568,1003,-1507,744,1029,-432,-2502,-687,-312,-455
-845,941,-1222,2009,1694,-583,-2042,-757,-541,-936
-244,1104,-1266,1739,1000,-260,-1442,-187,228,49
-679,1448,-930,748,-779,-250,-91,-25,-15,-287
-1147,1685,1334,1193,-1379,-395,913,-173,-741,-1001
-395,1879,3521,684,-1226,-120,1135,123,-467,-482
488,1763,2614,-1575,-1272,98,1217,472,69,188
909,1495,970,-2776,-947,411,2063,961,445,383
836,1221,246,-3148,-502,588,1886,1130,659,457
932,1115,-65,-3219,-592,399,1171,1088,849,759
909,1054,-232,-2492,-556,149,620,809,762,915
470,848,-287,-1625,-358,106,398,332,311,777
170,698,-102,-872,-25,161,394,70,71,482
105,671,-372,-127,404,199,432,205,167,308
144,803,-1471,417,828,373,553,232,118,144
98,866,-2210,1053,900,336,2,-230,-324,-250
-388,715,-1330,1472,330,-270,-1044,-811,-789,-774
-367,833,103,983,-105,-635,-1462,-673,-527,-565
26,1045,1263,1372,299,-468,-1585,-511,-109,224
190,1647,357,992,244,-230,-1289,-83,438,858
232,1818,292,896,9,-730,-1367,-43,410,658
319,1344,1391,1090,54,-1160,-1301,-187,149,515
782,911,948,-436,-874,-1162,-1340,45,406,963
765,284,-339,-1816,-1254,-625,-539,155,160,461
84,-395,-969,-955,4,271,836,55,-447,-559
-804,-1285,-1453,531,928,815,1210,-54,-579,-665
-857,-1762,-2131,1389,607,744,1114,150,-92,-41
-520,-1794,-1823,1415,109,96,253,-130,-26,194
-500,-1689,-990,547,-345,-96,-407,-568,-568,-278
-530,-1280,610,434,-565,65,-419,-595,-739,-646
-199,-350,2457,150,-374,104,-371,-488,-551,-496
101,284,2235,-707,704,443,-574,-322,-106,95
-241,-46,1627,-1525,574,665,850,81,12,-336
-278,-400,768,-2597,-533,381,1930,644,191,-482
-49,-575,332,-2151,-641,-149,874,600,309,-128
275,-684,141,-666,-72,-391,-407,174,207,111
359,-817,-218,621,390,-536,-967,-140,24,121
409,-902,-964,1196,969,-56,-506,120,354,468
488,-1156,-1231,1271,999,45,-791,189,600,810
437,-1174,-434,1204,1271,-279,-1641,-134,574,904
82,-856,161,994,1304,-440,-1916,-435,295,735
-123,-735,-958,-1079,-443,102,273,103,53,426
-75,-844,-1885,-2190,-1745,550,1926,746,75,198
-29,-653,-747,-785,-1382,107,1797,421,-137,-14
143,-312,600,86,-784,-327,1242,217,125,416
81,-273,1160,328,-350,-273,574,-3,9,345
249,-308,1158,807,-231,-317,-233,-237,-285,-329
42,-321,1009,657,-863,-623,-488,-416,-453,-802
-344,-382,242,-235,-540,-509,-121,-316,-390,-585
147,-429,-1039,-287,495,-195,-243,76,137,308
759,-320,-1405,-174,754,-191,-1198,74,439,821
241,-715,-1037,98,476,-319,-1342,-299,-15,353
-760,-1317,256,639,701,-98,-1240,-674,-604,-458
-1055,-1795,453,1190,691,-37,-1256,-693,-636,-720
-887,-1965,248,963,300,80,-1087,-102,-76,-353
-709,-2088,845,-42,219,252,-520,397,335,-284
-329,-2074,1778,-976,-155,-14,379,464,331,-95
489,-1335,1472,-1897,-906,-196,1025,515,398,368
580,-1030,280,-2597,-1200,269,1681,708,376,418
-150,-1560,-737,-2766,-1207,1019,3461,1120,194,9
-135,-1479,-451,-1551,-395,1240,3379,1000,286,72
142,-1283,-197,-533,167,830,2089,592,220,105
290,-1142,-539,-167,157,616,1169,353,77,52
-108,-1264,-455,379,-136,332,651,44,-169,-298
-471,-1254,91,1145,-30,-156,81,-519,-595,-696
-215,-1202,-61,1607,370,-303,-374,-740,-700,-562
411,-1271,-632,1435,612,1,-196,-335,-246,1
459,-1745,-840,1047,471,91,-171,-360,-258,63
-38,-2644,-405,-48,-29,-250,-379,-694,-607,-228
152,-2904,753,-509,-189,-440,-403,-590,-512,-249
486,-3503,1356,14,-322,-459,-432,-217,-53,173
383,-5746,380,-411,-734,-396,-296,113,257,432
493,-7682,-293,-883,-763,-389,-361,329,578,769
267,-8119,-113,-553,-368,-439,-1204,121,757,1048
78,-6685,0,-486,-133,-358,-1293,6,658,919
109,-5185,337,0,211,-147,-1000,-136,279,453
-233,-5367,518,552,506,70,-328,-432,-384,-203
-371,-6138,290,268,113,-223,45,-365,-509,-245
0,-6052,373,458,-79,-581,-604,-222,-117,213
9,-5135,363,316,45,-472,-880,-5,86,8
-341,-4203,33,-277,115,-135,-501,276,139,-403
50,-3597,-71,-168,-243,166,373,223,17,-293
-247,-4151,-288,650,97,198,-363,-268,-484,-750
-270,-4383,-255,989,330,41,-889,-395,-465,-558
184,-4426,-92,502,280,-319,-1112,-172,91,418
542,-4393,-422,-69,480,-322,-1039,80,454,878
270,-4783,-894,270,1444,383,-576,-28,90,492
-72,-5511,-1738,460,1786,828,590,198,16,211
-622,-6135,-2159,27,794,1119,1910,484,-40,-350
-1313,-6219,-1477,-8,-344,766,1985,167,-628,-1275
-1034,-5115,331,871,-605,-186,914,-455,-913,-1110
-463,-3400,1566,1234,-737,-774,175,-686,-842,-727
-419,-2859,972,851,-1022,-763,-94,-470,-514,-594
-89,-2369,651,284,-1082,-623,-570,-102,-5,-46
-12,-1689,1171,-354,-690,-196,-470,128,199,207
62,-1004,1121,-1300,-408,328,613,513,399,192
501,-349,247,-2163,-212,692,1510,803,571,294
760,49,-353,-2015,-48,624,1325,801,723,977
448,-27,-342,-1259,144,283,493,570,626,979
201,-194,-312,-607,80,-181,-648,150,286,363
475,43,-100,950,324,-614,-2064,-363,201,281
256,-227,-767,1842,656,-464,-2370,-723,-50,-18
-497,-1147,-1460,1330,524,71,-1178,-710,-543,-662
-858,-1608,-808,1713,1101,212,-827,-659,-363,-437
-751,-1452,747,2262,1357,-146,-874,-769,-346,-474
-565,-1393,691,837,508,-212,-26,-474,-563,-850
-398,-1437,-246,-453,-310,-146,768,61,-393,-689
60,-953,-267,236,-191,-217,585,70,-218,-218
329,-433,245,270,-494,-199,745,107,-256,-155
432,12,1236,-961,-1017,14,1103,396,0,-88
487,226,1494,-1835,-1009,41,882,544,350,207
333,240,574,-1993,-592,165,613,571,490,472
221,375,-313,-1614,-100,452,827,504,336,408
132,469,-562,-947,180,487,1094,377,166,161
-77,444,140,-160,280,88,366,-22,-80,-147
197,651,144,91,340,-328,-627,0,204,259
666,856,-364,314,248,-568,-1037,93,535,758
390,422,-351,758,35,-634,-1010,-255,168,320
-332,-234,-51,682,61,-272,-430,-482,-350,-414
-283,-451,-41,38,-112,11,227,-385,-258,25
57,-706,-681,-368,-193,291,469,-89,215,670
-154,-1162,-1211,-464,152,597,829,24,143,60
-287,-1296,-480,10,300,437,1084,26,-169,-524
49,-1088,564,-709,-304,172,788,401,142,-157
309,-955,670,-1254,-773,-181,173,383,360,276
275,-1106,143,-767,-647,-82,82,67,191,401
-38,-1335,-86,-381,-486,96,262,-30,-1,-33
-17,-1302,239,568,-141,-204,-268,-212,-47,-199
148,-1133,291,671,-4,-338,-439,-140,77,86
68,-993,105,225,-40,-145,217,78,180,193
-138,-710,79,126,202,-30,-298,1,124,-217
-264,46,-102,-82,181,124,-755,-71,-37,-649
-509,685,-397,-141,185,296,-477,-126,-237,-805
-660,2006,-317,-72,203,101,172,-290,-450,-617
-242,2493,201,71,185,47,664,-73,-129,-41
164,2048,445,16,-60,-123,451,139,186,342
467,1501,379,-95,-143,-367,-342,-13,271,546
841,1014,200,-270,-260,-510,-716,-78,348,688
903,537,40,-238,-362,-527,-334,30,170,279
686,5,20,142,-83,-343,-239,-1,-74,-144
609,-258,-250,296,148,-213,-284,-43,-200,-62
864,-50,-674,457,278,-359,-453,49,98,448
944,73,-1021,1388,491,-645,-1291,60,640,1231
-791,-534,-983,2019,687,-354,-806,-364,-161,-162
-2210,-857,-822,1901,897,594,1310,-502,-1156,-1537
-1628,-272,-1307,1254,918,1075,1738,-175,-821,-1205
-1129,279,-1546,598,652,814,1245,127,-243,-883
-1019,682,95,1270,436,-188,-310,-204,-130,-818
-577,1264,1557,1222,-47,-585,-1050,-429,-307,-772
-444,1562,1897,259,-430,-249,-366,-295,-571,-971
-1,1608,1262,-1255,-350,359,685,19,-285,-499
597,1569,759,-1933,-341,587,1034,274,240,311
801,1333,451,-2020,-391,420,618,500,683,925
712,1065,-126,-1471,-186,-215,-1020,485,872,920
510,961,43,-244,96,-477,-2088,-110,357,287
156,655,225,592,132,-529,-2178,-362,88,13
-173,365,267,219,-285,-411,-932,-375,-131,-85
189,585,-208,101,405,90,-579,-277,37,233
500,807,-762,225,967,549,-815,-107,299,428
-4,508,-1125,-640,170,521,415,97,167,352
-481,571,-605,-787,-308,117,717,-76,-160,221
-696,989,-582,-818,-290,123,673,-188,-320,-434
-230,1478,-898,-597,-552,465,2199,598,46,-230
356,1632,-1265,-254,-529,525,2726,891,131,38
127,1325,-948,1167,149,-4,1334,239,-242,-399
-252,835,290,2018,314,-424,-78,-489,-621,-727
-7,262,2084,-32,-586,-304,-281,77,149,65
-23,-323,1035,-927,-394,41,-239,411,378,-76
-103,-987,-127,-899,-307,-178,-909,96,118,-391
159,-1391,-615,-257,-21,-411,-1362,-118,144,-205
230,-1723,-359,766,561,-331,-1189,-233,72,-156
132,-2004,486,1096,833,100,405,-77,-151,-310
458,-2056,1013,629,558,154,691,117,194,413
595,-2279,1149,-93,-707,-643,-214,53,456,1165
489,-2289,803,-1165,-1639,-869,-15,297,479,1056
144,-2146,203,-992,-960,-76,502,485,132,12
-900,-1923,-128,-379,-141,689,616,183,-635,-1298
-1081,-1741,-20,-97,36,589,202,-78,-599,-1226
-254,-1606,-512,-552,93,538,151,107,3,-208
-50,-1957,-1589,-1200,166,880,675,264,43,-105
-131,-2517,-2106,-1106,403,1006,1290,378,-42,-79
-52,-2633,-1050,-344,670,839,1186,327,92,374
452,-2194,615,324,288,-48,-779,-299,224,728
550,-1574,1510,966,-294,-1258,-2755,-1194,-389,194
-178,-1792,846,1774,321,-1174,-2324,-1117,-672,-618
-202,-2198,-544,2162,1706,-93,-792,-430,-280,-699
57,-2850,-1988,1351,780,320,413,-24,-150,-186
-160,-3397,-2056,805,-671,-266,1006,-402,-710,-69
-316,-2714,379,2766,24,-711,275,-781,-911,-411
231,-1549,1444,1533,-60,-279,198,-134,-60,-39
582,-1034,740,-1315,-711,342,861,518,546,423
-241,-390,1513,-2298,-170,530,1293,751,224,-408
214,244,1425,-2260,-391,527,1012,993,592,-41
404,677,1265,-1987,-865,-5,24,551,470,187
441,776,596,-1499,-828,-526,-647,113,203,172
797,505,23,-776,-428,-574,-867,15,214,572
717,110,-480,79,62,-322,-1145,28,381,778
-583,-602,-1391,759,518,82,-983,-107,96,-40
-1285,-962,-1395,1434,921,102,-842,-218,-288,-790
-1333,-1159,-708,1593,998,-94,-689,-397,-510,-1022
-544,-903,-53,1196,999,-114,-1548,-549,-159,-397
-232,-778,196,188,246,-243,-1887,-634,-133,-259
-403,-1000,-187,-722,-537,106,-14,-395,-328,-482
-7,-536,437,-1045,-619,455,1516,144,-243,-320
680,243,1305,-1015,-686,281,1883,358,-247,-233
1468,1089,1392,-1166,-991,-193,1575,470,311,709
1404,2056,961,-1288,-1064,-611,709,392,728,1656
551,2745,66,-328,-217,-498,182,245,566,1578
157,3661,-973,206,370,-72,172,311,392,916
22,4860,-1542,531,796,150,-570,293,496,478
-428,5834,-467,1190,1060,62,-1025,69,195,-396
-576,6320,1115,943,461,-86,-866,-137,-116,-833
-272,6443,1603,4,-80,58,-214,-183,-249,-687
-502,5756,515,-730,-301,483,900,-12,-442,-1003
-853,4304,-658,-1004,-481,639,1994,403,-393,-1073
-248,3399,-541,-638,-564,263,1424,509,149,-40
167,2779,-464,-587,-748,50,864,360,314,542
273,2450,-27,-233,-688,-71,810,66,-27,181
443,2158,169,-228,-337,5,413,46,126,245
11,1710,151,15,148,168,-38,-43,102,-28
-642,1330,87,566,426,41,-770,-298,-201,-733
-779,1223,-279,1260,729,-59,-1035,-410,-436,-1017
-190,1706,-487,2184,707,-287,-1354,-567,-424,-740
-209,1984,-872,2193,572,-582,-1643,-788,-433,-581
-504,2024,-886,1613,499,-312,-61,-309,-355,-473
150,2688,-168,257,-180,-115,439,39,109,327
887,3560,880,-871,-228,-35,-471,87,478,753
949,3876,1531,-1353,-170,8,-707,170,438,507
451,3489,983,-1859,-529,135,326,291,229,179
56,3018,125,-1747,-459,347,1027,517,282,128
3,2407,-338,-1253,-469,448,1050,566,338,315
-414,1620,-591,-846,-347,517,1371,433,45,-203
-297,1231,-517,-270,290,504,1373,353,-65,-406
274,1194,-229,255,593,104,316,23,-117,-286
715,1033,-713,228,551,52,25,-3,53,56
660,380,-1672,-185,202,-23,-35,-15,242,596
-77,-264,-1577,193,-43,-527,-867,-574,-74,450
-462,-68,-465,472,-127,-394,-625,-456,-258,-276
-459,445,406,758,159,371,600,134,-185,-814
-464,706,1170,546,-15,514,874,368,-72,-855
-454,813,1538,-417,-508,179,775,368,89,-480
-146,1067,1229,-984,-622,-46,268,79,150,150
497,1594,594,-858,-353,-136,-343,-189,135,534
818,1988,229,-288,-50,-164,-699,-219,223,576
751,2098,273,52,17,-101,-691,-229,0,247
104,1304,56,1948,270,-825,-1559,-347,150,290
-717,555,-794,1752,314,-454,-857,-697,-422,-365
-650,316,-1170,1005,593,-285,-767,-685,-450,-152
36,723,-665,390,920,79,-336,-42,314,933
572,1188,600,-138,339,110,-634,156,582,1079
73,989,247,-885,-458,152,-629,-33,215,368
-979,683,-366,-552,-390,427,204,-149,-353,-865
-1277,1027,-54,26,-286,585,1672,18,-759,-1624
-929,1747,397,-134,-190,666,2371,561,-444,-1572
-262,2331,600,-452,-37,453,1604,617,-36,-767
239,2687,421,-935,-114,304,1078,531,235,-56
444,2788,33,-1430,-472,80,852,770,711,394
693,3003,-90,-1343,-700,-279,259,623,803,742
624,3038,-150,-658,-511,-429,-148,193,412,651
289,2622,-677,-161,-27,-142,-3,150,200,473
46,1996,-1106,416,663,124,-292,56,-14,-27
-348,1245,-744,1366,1094,-32,-1026,-286,-358,-762
-543,653,-853,1520,935,-354,-1623,-606,-532,-1001
-680,368,-372,2165,775,-371,-1148,-792,-644,-744
-542,259,589,2085,706,-49,-12,-765,-750,-361
-62,244,1070,912,600,365,425,-438,-502,-122
244,445,1175,-522,-200,232,271,193,152,5
511,551,675,-1636,-1005,-137,-134,346,487,220
1023,805,464,-1539,-947,-220,200,433,645,980
1021,904,239,-1252,-580,-173,22,453,707,1229
416,632,-80,-1258,-516,-174,-247,335,371,600
-150,596,-198,-964,-451,-92,-110,287,-7,-294
-215,882,-269,-439,-169,118,-315,189,-68,-493
-621,867,-971,-395,11,578,674,423,-159,-738
-841,908,-1160,-90,272,546,451,392,-95,-801
-732,860,-402,650,395,267,-179,-172,-246,-491
-482,731,494,660,23,236,414,-340,-448,-429
-167,650,374,507,257,385,540,-110,-311,-426
199,720,623,1319,752,78,-545,-194,-69,-85
694,728,1012,879,212,-667,-1792,-347,237,524
922,619,643,5,60,-743,-1805,-420,193,677
666,319,-180,-224,285,-290,-627,-243,72,546
-248,-368,-1055,-602,-66,95,1131,136,-34,83
-447,-400,-854,-387,-333,35,1368,184,-172,-208
-181,153,337,501,-95,-404,64,-49,-165,-105
-68,586,905,651,-106,-592,-427,-93,-80,146
5,863,638,174,-332,-351,-340,-150,-151,179
-188,1101,0,-441,-314,277,675,108,-184,-259
-488,1542,-236,-411,-100,696,1523,405,-119,-437
-461,1951,-672,365,487,575,980,285,-27,-237
-118,2027,-1771,1121,1416,471,350,148,111,115
-404,1467,-2824,1061,1502,589,33,-131,-132,-251
-886,953,-1898,1194,809,134,-409,-687,-727,-991
-433,1036,694,1141,0,-383,-654,-710,-663,-634
530,1282,2387,-95,-721,-212,-105,-19,33,316
1052,1119,2311,-1301,-1069,37,436,518,587,853
980,464,1253,-1443,-925,17,-18,517,712,786
521,-459,683,-1098,-731,-314,-694,219,499,406
837,-847,362,-985,-545,-577,-988,73,471,687
1190,-835,267,-514,-482,-739,-990,-115,316,1137
689,-1216,92,-327,-395,-847,-993,-249,173,1182
-201,-1619,-188,-285,-72,-421,-712,-116,58,321
-648,-1745,-568,150,471,154,-249,-17,-151,-587
-472,-1635,-923,948,718,260,-49,-328,-505,-700
-353,-1203,-1182,1531,635,330,418,-322,-542,-581
-767,-1163,-2100,757,122,693,1688,274,-196,-622
-1284,-1413,-1942,950,-92,307,1097,52,-253,-722
-1205,-1054,959,2027,279,-210,8,-537,-635,-845
-493,-286,2890,995,0,-428,-454,-405,-438,-549
-29,-116,2266,-517,-480,-204,-293,-84,-141,-256
291,-448,760,-1594,-484,157,387,414,212,87
1020,-686,213,-1376,24,80,-535,328,583,791
1267,-676,599,-759,118,-335,-1514,201,724,1023
1112,-737,498,-467,66,-500,-1880,-80,497,720
340,-978,-102,-544,-127,-281,-664,-31,126,115
-73,-1097,-571,-497,-349,-140,359,34,171,463
-480,-960,-661,-88,-397,9,893,-53,-112,-26
-591,-429,-409,486,-48,118,935,0,-299,-598
-565,-42,-254,731,549,320,964,52,-266,-607
-484,353,-269,455,640,427,859,213,-74,-365
-67,937,-318,-34,474,56,-86,162,175,41
450,1444,-200,-401,314,-343,-994,71,495,394
754,1661,-249,-750,-340,-656,-1341,-73,480,592
769,1685,-370,-469,-617,-428,-797,-102,289,795
521,1642,-148,23,-396,303,242,211,129,650
263,1429,87,-160,-355,276,676,142,-87,337
-206,857,-91,-129,-45,307,1067,231,-117,283
-740,286,-687,-42,35,454,1456,455,-85,-405
-511,35,-913,385,-90,280,637,215,-102,-720
-903,-475,-569,970,-255,80,885,-10,-419,-1031
-882,-544,382,1276,-89,-130,306,-407,-464,-520
-509,-294,923,930,302,239,307,-280,-330,-446
-44,102,700,76,443,547,501,84,-136,-534
115,340,379,-528,310,516,261,212,69,-355
267,351,-43,-1226,50,400,338,382,448,435
1051,771,119,-981,-7,-5,-162,219,673,1312
1323,1279,358,-227,373,-401,-1653,-212,576,1274
771,1487,166,194,740,-772,-2865,-560,304,438
276,1557,157,477,871,-859,-2976,-615,135,-32
-79,1425,154,671,583,-354,-1526,-203,47,-79
-601,892,-601,651,4,311,66,92,-291,-540
-866,205,-1164,762,-590,428,1131,117,-401,-540
-1022,-321,-917,486,-934,48,1751,-241,-760,-773
-856,-427,-585,366,-258,168,1959,-41,-630,-987
-676,-455,-489,-145,197,606,1536,218,-343,-1116
-545,-643,-41,-427,319,744,1387,207,-268,-829
114,-669,457,-582,365,397,996,182,91,296
778,-522,772,-689,-35,87,283,123,172,484
772,-679,824,-934,-605,-214,-226,94,191,128
833,-720,534,-1146,-947,-398,-527,-7,296,473
745,-627,426,-911,-774,-263,-92,-84,185,779
399,-506,569,-622,-563,-23,734,110,72,563
152,-302,364,-318,-267,5,521,175,162,383
-392,-305,-101,220,121,-298,-274,57,189,226
-827,31,-369,952,-49,-783,-1673,-423,-139,-393
-685,158,-571,743,153,-456,-1198,-131,29,-476
-149,333,161,939,635,339,-276,107,87,-328
523,429,1203,597,282,434,214,239,298,217
569,49,975,-637,-378,-39,156,126,187,271
293,-591,-94,-764,-375,-134,-560,-119,73,385
295,-1199,-1035,-476,-345,-79,-760,-105,279,700
562,-1448,-1338,-59,-68,-55,-326,-71,316,912
356,-1542,-911,190,435,273,28,-136,7,381
-182,-1795,-628,-438,448,673,993,211,-199,-632
-387,-1833,-378,-307,533,651,1282,403,-196,-879
-218,-1496,656,192,301,244,233,120,-223,-616
-62,-1232,1452,-56,-493,-257,-315,-121,-216,-397
144,-1067,883,-642,-821,-336,112,1,-37,-59
49,-965,493,-518,-458,-74,160,4,30,63
-169,-809,229,-194,-60,171,107,47,41,-139
-308,-518,29,-22,8,185,456,207,9,-112
-211,-130,227,317,125,-41,-107,68,-9,64
47,12,198,389,117,-191,-756,-95,75,267
86,-120,-82,534,262,-119,-690,-243,-78,148
-73,-333,24,1022,810,-57,-755,-483,-412,-372
135,-456,342,1103,1064,-352,-1261,-540,-266,-261
423,-813,-651,109,432,-355,-1125,-349,93,634
-222,-1500,-1782,-674,-368,146,213,-45,105,667
-993,-1783,-1396,-89,83,638,1569,212,-202,-564
-1080,-1606,-161,434,633,845,1646,342,-259,-985
-750,-1288,762,70,-129,459,1025,290,-200,-753
-396,-1083,1014,-24,-480,-116,202,97,-121,-399
-39,-922,686,-475,-600,-171,406,87,-84,-112
126,-759,253,-688,-768,-160,562,133,-38,-19
169,-588,194,-281,-674,-344,136,151,79,54
324,-252,222,-41,-528,-497,-316,120,210,281
236,31,196,104,-236,-439,-817,-37,178,338
132,248,168,365,58,-314,-1232,-311,13,207
166,279,44,326,246,-99,-1116,-340,-22,144
359,97,-396,-129,235,250,-90,69,230,349
187,-305,-438,-298,-96,204,742,264,200,216
52,-633,164,-304,-430,-277,166,2,22,27
275,-858,221,-525,-575,-553,-344,-73,-5,106
241,-1188,-129,-410,-361,-297,20,-31,-156,-61
115,-1499,-552,-141,19,-60,0,-19,-185,-81
154,-1832,-900,223,107,-139,-345,-184,-29,333
144,-2044,-1008,344,-272,-434,-559,-408,-30,525
-361,-2126,-865,440,-279,-305,-364,-341,-114,101
-689,-1769,-175,1133,533,314,171,0,-193,-506
-410,-1275,518,1352,1005,529,125,106,-215,-601
62,-790,1236,713,627,181,-472,-49,-64,-202
277,-648,1237,-538,-39,117,-159,-94,-90,25
44,-705,520,-1195,-569,261,903,113,-149,80
-284,-491,10,-984,-508,434,1223,248,-175,-203
-88,-62,-202,-626,-236,428,682,202,-53,-193
210,321,-236,-366,-163,244,394,135,41,-85
525,518,-322,-334,-351,-67,339,132,127,202
663,473,-409,-238,-261,-218,128,37,243,838
682,408,-467,-24,164,-177,13,-51,211,829
610,355,-504,155,430,-144,-294,-32,240,551
272,47,-494,145,369,-80,-601,117,545,662
-213,-163,-62,213,514,126,-577,46,409,340
-439,-106,555,386,574,0,-410,-93,50,-158
-202,133,573,106,269,-93,29,24,0,-365
295,549,387,73,507,-111,-190,19,50,-181
381,782,294,624,963,-150,-1185,-130,70,49
108,924,90,572,835,-146,-1855,-321,-46,-248
-430,979,-185,563,919,-10,-1066,-295,-299,-868
-395,1314,-163,627,557,-75,298,-5,-212,-608
289,1940,-76,54,-628,-403,733,143,186,512
532,2395,317,-74,-1122,-565,228,-123,190,749
375,2531,239,-219,-880,-231,11,-224,-4,245
98,2430,-112,1,-429,243,698,-65,-160,-136
-447,1926,-245,639,-186,349,1189,132,-115,-306
-817,1393,81,694,65,218,632,9,-276,-890
-821,983,569,509,312,181,15,-195,-420,-1039
-648,663,490,359,243,226,156,2,-196,-685
-342,396,-10,-179,-11,89,518,205,-34,-331
-95,188,-363,-548,-39,27,187,153,49,-58
-75,-20,-102,-607,-123,28,-30,26,19,-50
173,10,252,-582,-179,10,-22,81,111,87
404,-40,-81,-783,-152,-29,-178,279,411,500
224,-291,-327,-611,90,140,92,265,281,396
14,-340,-215,168,543,389,643,192,33,95
-22,-99,-262,520,462,246,239,6,-78,-25
-146,508,-703,61,-11,-85,-362,-293,-245,-159
-23,790,-311,92,-98,-365,-772,-367,-239,-13
311,809,389,202,-279,-511,-622,-23,113,335
435,519,484,-114,-442,-423,-430,47,207,349
-50,-202,166,-285,-397,-231,-312,-83,67,115
-222,-865,-373,-376,-492,-27,372,93,50,160
-130,-1486,-660,-252,-381,113,814,270,111,171
17,-2023,-287,15,-189,170,619,210,55,-118
201,-2326,492,115,-79,-86,-16,-20,-78,-221
157,-2696,734,187,-75,-350,-518,-79,-54,-171
275,-3103,-9,105,141,-143,-607,1,86,27
233,-3440,-707,-9,458,-8,-593,-162,-57,-80
-45,-3711,-1219,-156,422,197,-60,-77,-30,-87
-22,-3793,-944,-298,113,325,491,95,113,366
7,-3484,149,455,536,428,592,126,41,162
140,-3064,503,886,793,581,723,320,155,69
-22,-2975,55,353,294,343,256,33,0,-10
-522,-2818,181,-4,-44,-104,-352,-440,-435,-556
-372,-2362,397,149,-185,-194,-292,-408,-443,-577
216,-1859,728,-29,-785,-288,-57,-149,-118,-30
852,-1495,925,-264,-836,-342,-129,82,362,650
889,-1407,870,-118,-339,-364,-566,50,554,1010
251,-1782,607,-37,-43,-295,-899,77,597,914
-239,-2268,272,-244,23,-185,-900,-53,289,228
-534,-2586,19,-370,197,114,-164,-52,-123,-696
-303,-2556,-4,-309,267,205,279,74,-101,-677
-99,-2527,-126,-487,53,79,493,186,-30,-384
107,-2353,77,-237,1,-97,-237,79,-7,-197
308,-2106,169,47,5,-384,-1459,-80,103,19
71,-2051,-118,299,181,-323,-1489,-59,155,89
-398,-2019,-596,432,70,-104,-577,-201,-125,-216
-763,-1753,-945,160,-362,0,589,-240,-500,-666
-664,-1186,-913,126,-153,238,872,13,-311,-599
-563,-664,-828,315,159,360,663,98,-134,-314
-374,-115,-405,62,-49,122,885,87,-64,205
158,743,289,-443,-211,99,832,180,110,486
148,1128,56,-787,11,595,1153,438,170,54
416,1215,-173,-542,62,652,1068,372,154,169
661,1113,122,-530,-241,44,142,-152,-105,422
463,869,365,-301,-194,-132,73,-309,-376,-41
63,576,290,-148,-181,104,525,-27,-285,-475
-337,177,-164,-7,-132,295,619,261,43,-361
-149,120,-534,826,407,180,36,99,108,59
-179,65,-651,1585,1090,193,-365,-156,-18,97
-63,168,-394,1612,1333,77,-891,-394,-100,98
89,476,272,644,504,-327,-752,-445,-115,160
-193,758,541,-341,-273,-378,95,-95,-19,-62
-19,1421,774,-573,-379,-212,10,185,315,-24
245,2057,529,-775,-214,-272,-536,51,315,29
233,2369,-63,-667,-228,-331,-609,7,133,-101
303,2616,-321,0,-347,-337,-138,94,-8,-117
545,2946,-212,768,-5,-59,540,276,212,405
104,2948,-31,979,385,480,607,140,98,363
-685,2660,597,752,168,381,190,-232,-328,-467
-510,2738,810,-456,-170,179,307,-63,-175,-409
496,2701,-82,-1359,-581,99,638,391,340,341
258,2178,286,-873,-392,15,275,271,327,415
94,1612,410,-627,-305,-95,91,176,206,278
310,1325,190,-543,-280,-221,-156,-18,95,242
5,832,-104,-415,-137,-154,-204,-85,109,295
-169,409,-469,-133,217,92,-41,4,159,360
-64,262,-730,113,491,155,-122,-43,32,197
-12,268,-582,381,340,-43,-463,-290,-278,-128
-373,280,331,640,77,-117,-461,-288,-321,-513
-388,472,815,528,-78,-110,-335,-51,-87,-556
-108,599,439,77,-37,-28,-6,208,98,-424
175,749,-91,-183,129,-40,-329,183,238,-120
494,968,-148,114,276,-288,-1077,-155,232,675
403,910,525,318,93,-514,-1080,-308,49,776
-412,337,416,-310,-360,-180,214,78,-195,-332
-816,-99,-43,-419,-459,193,637,140,-345,-773
-560,-357,-90,-219,-363,185,-31,-90,-304,-434
-116,-561,-74,-235,-299,224,14,-150,-234,-179
129,-853,-177,-109,-229,200,428,-117,-148,-31
137,-1241,-189,148,-194,80,822,-45,-51,-36
294,-1476,-78,311,-177,-58,641,14,46,229
592,-1589,-269,115,63,-148,24,-39,196,654
352,-1754,-538,122,389,143,135,83,167,194
-72,-1784,-640,180,457,290,253,125,25,-335
-190,-1624,-542,101,577,242,359,100,-17,-269
-211,-1417,-145,308,782,122,153,-81,-144,-218
-99,-1270,63,833,810,16,-370,-343,-265,-48
-134,-1178,-661,789,484,100,-448,-218,-56,93
-257,-815,-1060,939,376,-14,-693,-300,-191,-524
-333,-364,-129,1526,641,-267,-1485,-561,-367,-715
-21,87,1664,1546,661,-223,-1819,-375,19,12
146,132,1676,-242,-374,29,-555,71,308,451
-132,-260,58,-2036,-1098,271,1666,528,163,230
-75,-443,121,-843,-723,77,1854,518,92,113
109,-721,363,-174,-823,-444,607,150,79,248
702,-1099,-42,-915,-1019,-473,68,79,231,621
996,-1165,16,-921,-570,-202,22,3,-7,271
788,-1245,193,-829,-250,-35,-21,-24,-144,-68
285,-1496,158,-1007,-255,51,75,119,52,80
43,-1578,-79,-718,-80,261,503,325,290,324
-167,-1502,-328,-277,70,305,540,259,211,193
-435,-1220,-424,18,189,127,131,171,60,-69
-278,-592,-561,556,530,16,-328,161,49,-24
-48,-128,-1144,862,761,74,-521,80,139,124
-331,30,-1047,1146,632,86,-607,-209,-146,-467
-703,421,516,910,346,0,-638,-536,-489,-916
-425,1088,1433,214,94,85,-220,-269,-77,-35
-173,1203,279,-482,-218,72,299,193,281,719
49,1032,-562,-566,-389,-61,190,316,215,452
167,880,-116,78,-97,-246,-718,20,15,-29
-156,498,492,-19,169,-178,-889,-118,-161,-384
-319,-8,543,-610,-235,94,234,-1,-346,-515
-72,-386,239,-859,-602,182,990,200,-112,-50
126,-669,63,-507,-359,94,1005,322,176,293
259,-786,-340,-167,206,265,801,330,270,232
176,-831,-506,-12,288,232,365,197,161,-43
-141,-901,-244,427,76,15,49,-81,-140,-273
-250,-790,257,695,-143,-215,-775,-515,-434,-390
-236,-580,217,437,-120,-318,-1130,-664,-553,-425
-133,-299,56,577,189,-286,-1269,-588,-384,-312
111,202,335,622,142,-305,-1305,-412,-84,-11
274,669,375,-180,-297,-170,-214,107,336,305
303,876,-30,-951,-583,105,1466,606,445,357
317,1009,-371,-923,-403,370,1960,628,155,199
87,934,-216,-316,-175,331,1258,285,-171,-114
-6,682,48,117,-312,26,816,152,-89,74
-113,226,-58,253,-425,-262,366,97,46,165
-225,-382,-465,46,-325,-257,133,70,-5,28
-104,-699,-440,-125,-100,-110,86,-88,-250,-32
-60,-786,-246,-254,225,185,182,-119,-254,116
122,-772,-12,-556,131,233,183,-21,-43,123
213,-844,188,-362,205,296,20,-62,42,145
37,-935,-99,-379,137,204,-116,1,220,285
-314,-902,-387,152,608,340,-156,-42,22,-316
-302,-626,-851,1172,1191,519,-194,-139,-250,-534
-192,-398,-1637,1390,875,159,-512,-190,-214,-325
-492,-214,-993,1829,568,-136,-744,-437,-423,-711
-622,362,1336,1487,137,-259,-488,-581,-663,-981
-166,1263,2146,-97,-12,-57,164,-178,-292,-293
561,1933,1345,-1181,-151,-29,406,369,414,702
966,2111,544,-1551,-411,-220,-143,508,768,1069
906,1915,97,-1252,-452,-403,-764,342,750,1071
949,1767,189,-704,-411,-540,-1481,-6,516,974
645,1409,324,-261,-214,-467,-1861,-256,315,674
510,973,87,-167,-109,-356,-1161,-133,273,568
344,610,-264,-9,268,-139,-638,-41,240,364
-362,151,-611,86,690,331,658,252,-15,-447
-799,-106,-516,47,456,833,1826,445,-311,-1053
-866,-71,-272,235,196,612,1036,131,-449,-1138
-569,217,-78,560,148,125,575,-148,-458,-607
-176,539,111,438,-168,33,463,-118,-208,-66
-213,725,157,-152,-466,155,629,23,-51,-111
-144,997,148,-349,-514,-8,506,9,-5,-26
80,1361,318,-169,-418,-203,185,-100,-72,43
224,1613,287,-212,-435,-203,-37,-61,1,235
242,1681,-166,-282,-381,-129,0,73,184,537
323,1704,-457,221,-54,-95,-56,51,240,656
20,1381,-500,772,452,90,-167,-22,122,174
-434,951,-381,787,871,330,-212,-11,-26,-460
-454,596,264,918,714,25,-492,-260,-295,-681
-283,226,834,144,-298,-468,-563,-515,-605,-709
190,-21,464,-814,-825,-392,-369,-139,-128,-114
356,-424,22,-687,-754,-364,-312,101,288,317
-3,-957,-83,160,-143,-404,-602,-88,157,103
-464,-1486,-564,597,560,-163,-837,-215,-57,-412
-437,-1708,-1408,-126,558,214,-278,-78,-171,-742
99,-1476,-1253,-475,328,575,703,282,27,-423
282,-1142,-230,12,246,434,481,41,-41,49
349,-862,594,648,115,-70,190,-233,-237,120
347,-763,897,599,-83,-250,399,-156,-203,-29
86,-757,338,-29,-261,0,527,155,45,28
98,-431,187,20,-195,190,374,198,51,111
148,-98,461,84,-93,157,153,169,123,161
191,58,650,-355,-316,-246,-454,151,334,389
333,38,437,-756,-420,-283,-759,119,480,718
78,-351,-255,-980,-436,6,-280,49,297,576
-162,-786,-409,-886,-398,298,492,94,55,248
-67,-924,20,-547,-334,297,693,210,87,158
142,-926,353,-297,-262,40,552,254,174,118
197,-1247,0,159,442,-68,-365,100,242,147
320,-1399,-451,-123,123,-197,-479,-124,226,777
391,-1326,-417,-250,-305,-442,-765,-181,292,1008
128,-1182,104,208,-55,-234,-933,-104,103,81
-175,-803,519,658,236,-151,-756,-134,-199,-543
-346,-455,590,734,313,-153,-351,-67,-238,-524
-557,-278,167,294,129,134,199,-131,-428,-829
-725,-114,-342,22,-140,247,670,-152,-585,-948
-729,102,-722,-19,-130,190,783,30,-295,-558
-696,315,-861,-22,73,320,915,178,-48,-248
-587,487,-399,109,103,312,776,12,-212,-328
-389,608,260,168,30,162,543,-110,-245,-309
25,542,651,42,-117,-55,245,-11,-33,65
387,163,469,-158,-218,-142,106,50,123,361
679,-64,250,-350,-135,-35,116,-14,22,181
807,-278,69,-386,3,48,56,6,23,178
257,-926,-98,38,252,35,-125,300,432,460
-9,-1097,-169,255,316,60,-211,267,424,493
-231,-1157,-407,468,324,66,-450,83,139,113
-329,-931,-482,834,426,-180,-771,-279,-250,-299
-345,-485,-192,1120,177,-443,-683,-370,-342,-593
-499,-198,-69,566,-432,-495,-497,-343,-350,-618
-714,43,33,-231,-287,-24,386,-140,-395,-656
-488,549,-87,-373,477,715,1186,188,-244,-575
-84,968,-487,-146,820,953,818,233,-46,-310
-53,1072,-281,184,495,397,-57,-55,-55,-125
-15,973,156,159,155,-89,-329,-115,61,186
287,923,-168,495,467,113,35,80,219,418
379,776,-503,396,402,361,0,-4,189,434
69,362,-667,-461,55,251,228,-72,82,207
121,304,581,-160,119,59,597,0,77,131
476,343,1502,-424,-431,-218,75,67,182,225
727,154,1113,-1054,-891,-319,-308,140,337,454
743,-44,374,-763,-587,-322,-580,-16,309,563
537,-186,-180,-336,-347,-212,-463,52,272,497
205,-412,-699,-255,-320,-132,-182,168,156,191
-219,-412,-59,-59,-292,-124,25,-67,-194,-284
-219,8,595,-239,-196,-184,-57,-302,-286,-269
-135,442,535,-97,-57,-100,-160,-169,-120,-191
-133,716,138,-10,-179,-93,-144,-43,-34,-298
-416,871,-22,421,-123,-140,-3,-268,-402,-657
-208,1229,-14,720,-7,27,422,-68,-354,-610
363,1426,-3,426,-43,63,220,180,38,-207
744,1365,-7,-140,33,-212,-663,-15,123,60
933,1121,-293,-585,186,-384,-1164,-77,414,924
513,359,-608,-826,30,-270,-784,89,606,1250
-137,-233,-263,-623,-226,-261,-128,75,215,502
-490,-299,357,-62,-291,-209,-97,-7,-126,-189
-540,-489,363,-41,-287,171,590,236,-49,-509
-441,-775,78,-107,-196,377,1171,342,19,-363
-381,-1073,-84,-125,-161,327,869,307,79,-49
-309,-998,28,144,64,240,338,26,-202,-311
-226,-770,-9,529,332,273,559,-77,-446,-522
8,-495,-330,469,295,158,502,26,-273,-286
265,-95,-571,361,233,-3,9,-47,-168,-108
508,457,-92,1039,362,-102,-328,-164,-103,223
186,698,66,719,-32,-205,-223,-156,52,438
120,1006,-97,30,-275,-126,-99,-154,107,370
270,1411,-163,116,4,51,-137,-102,197,401
72,1442,-211,-36,197,8,-516,-43,313,474
-313,1262,115,-265,177,-134,-561,-33,293,212
-346,1187,639,-572,-4,-33,-13,192,176,-228
-189,1048,541,-489,78,148,297,218,-94,-453
26,829,140,-262,413,263,275,195,-22,-191
108,616,-450,-296,564,288,250,258,124,86
206,594,-766,-302,424,86,-193,62,92,163
72,573,-515,11,12,-228,-638,-200,-86,1
-372,599,103,190,-355,-267,-192,-110,-183,-384
-286,898,386,97,-485,-328,75,92,70,-229
58,1247,-207,97,-437,-321,248,307,356,189
-27,1510,-324,332,-66,87,199,291,181,-78
-360,1669,-141,350,106,438,31,-93,-337,-654
-436,1941,331,237,17,552,386,-351,-717,-976
-74,2437,590,223,76,283,303,-298,-459,-504
46,2698,650,-84,-91,-93,-161,-175,30,285
31,2659,776,-257,-391,-410,-297,-216,136,443
184,2607,412,-318,-148,-279,4,-119,71,119
213,2542,-86,-333,136,89,410,178,109,-127
365,2470,-266,-64,28,-3,208,218,206,25
660,2156,-175,665,-4,-377,-428,51,308,602
590,1604,-131,1247,255,-464,-846,-45,230,444
355,1080,185,923,211,-425,-1220,-322,-128,-324
-115,550,479,112,266,-83,-805,-383,-387,-864
-110,60,-121,-653,433,304,440,56,-58,-15
258,-129,-758,-235,694,170,549,329,511,1081
-147,-301,-1188,664,502,-44,-38,-48,43,114
-433,-317,-1278,1282,353,-74,-505,-356,-425,-464
-517,-203,-579,1553,412,-22,-427,-203,-310,-386
-554,58,670,777,34,-98,-57,-139,-255,-407
-579,416,1620,164,-135,109,214,-97,-262,-566
-396,673,1439,-987,-433,326,413,145,-61,-558
-79,852,639,-2002,-808,302,810,353,74,-315
34,749,4,-2213,-867,287,1161,626,143,-162
172,624,-121,-1683,-682,117,712,518,182,1
353,442,-87,-1069,-514,-56,171,195,139,133
456,4,-87,-630,-292,33,281,75,67,167
475,-461,58,-217,-65,123,349,35,58,168
345,-794,43,-68,-22,57,96,-2,62,203
252,-962,-45,-17,11,-14,-219,-8,126,282
252,-1272,-539,-111,-24,-112,-424,51,277,475
-6,-1592,-836,-121,32,-49,-270,89,226,363
-396,-1770,-492,43,163,74,-88,4,18,-200
-513,-1789,-248,96,68,114,315,-139,-231,-452
-446,-1578,-153,60,-25,181,777,-14,-135,-145
-292,-1208,211,517,219,135,466,50,12,74
218,-638,331,624,430,121,-116,25,72,358
372,-265,160,238,303,63,-473,18,167,438
-9,-186,102,-84,-161,-300,-732,-206,7,-16
-357,-116,346,-234,-475,-265,-316,-389,-365,-520
-171,-2,218,-169,-499,-9,406,-63,-206,-348
125,7,-34,-96,-341,-92,229,149,169,18
51,-253,-42,3,-6,-203,-665,-55,150,-62
102,-569,131,122,150,-336,-1356,-343,53,-69
222,-891,68,3,90,-333,-1128,-300,28,205
245,-1032,100,-72,57,-112,-380,-176,-89,103
32,-1223,-65,128,212,211,296,-53,-185,-224
-122,-1509,-508,229,255,439,1307,405,-5,-192
73,-1542,-337,461,194,203,1045,346,101,256
98,-1472,-51,992,759,106,115,-78,-105,192
8,-1456,-741,617,1161,353,-217,-101,-132,-90
-165,-1482,-1503,4,761,472,-159,-8,-47,-197
-216,-1141,-368,283,216,175,35,-82,4,60
-44,-377,1338,152,-542,-231,506,-13,-52,90
122,177,1379,-679,-999,-158,722,207,-8,65
113,259,479,-858,-745,-32,456,230,78,244
127,304,140,-546,-390,-16,143,100,101,221
80,248,134,-319,-270,-38,53,94,150,155
4,158,78,-165,-114,10,106,187,138,64
437,278,127,25,146,-97,-224,-7,-26,-164
312,84,142,215,365,-180,-443,-87,-53,-235
-76,-292,40,226,342,-213,-550,-90,73,-36
-168,-600,-87,627,368,-106,-508,-296,-154,-96
-420,-841,-135,1353,391,-40,-363,-446,-312,-194
-651,-920,-291,1348,2,-222,-316,-445,-326,-259
-656,-628,-63,1362,51,-205,-212,-295,-333,-532
-353,-203,91,406,-150,50,168,-10,-181,-415
11,251,-5,-813,-369,185,477,226,8,-68
279,652,-114,-1251,-283,363,790,458,273,270
344,974,-46,-1116,-101,427,583,414,288,281
373,1315,-44,-950,-193,131,151,227,245,325
455,1709,216,-770,-371,-285,-514,28,256,551
355,1875,291,-448,-366,-560,-1192,-146,182,451
96,1725,152,-229,-275,-561,-1445,-136,198,88
29,1505,66,-128,-200,-487,-1113,-127,169,-56
34,1223,-30,-111,-101,-259,-183,-119,13,11
-153,694,-352,-227,-107,99,959,63,-77,73
-104,360,-548,-74,69,383,1135,245,-48,-42
-36,-23,-758,124,461,583,1043,292,-38,-121
150,-323,-811,471,997,639,621,142,91,106
183,-555,-650,694,847,408,116,-13,244,375
-57,-771,-327,415,-43,-171,-414,-281,152,457
-308,-722,441,532,-208,-457,-761,-640,-324,-158
-390,-472,1012,549,151,-103,-401,-443,-397,-535
133,74,528,-644,-297,239,542,352,253,80
344,434,414,-455,-227,-19,-343,9,92,154
-172,512,175,-190,-101,-60,-188,-139,-240,-309
-312,705,41,-28,-107,-124,25,1,-174,-350
-43,1005,-23,-4,-135,-228,-400,117,201,140
99,1131,-41,-15,-130,-268,-674,11,216,258
367,1222,30,-60,-143,-246,-635,-91,117,247
373,1051,104,48,-29,-277,-608,-177,17,28
176,184,-481,-147,192,144,812,224,-6,232
-133,-67,-293,-350,-143,188,1030,205,3,79
-416,-184,289,186,53,356,1120,290,1,-226
-352,-336,343,531,157,315,758,299,29,-217
-234,-415,41,508,-33,116,593,128,-96,-260
-68,-406,-328,306,-95,43,273,-11,-97,-87
22,-281,-578,64,107,195,124,-29,-27,26
8,-5,-120,154,534,297,64,-119,-157,-226
-132,227,222,81,807,265,-125,-120,-127,-286
-169,443,-233,30,743,178,-435,-88,-33,-190
-59,716,-470,316,322,-33,-740,-222,-12,138
22,1065,72,474,-151,-248,-690,-230,17,410
0,1185,453,450,-301,-393,-514,-185,53,282
-105,1157,521,534,-180,-515,-896,-267,26,-72
31,1072,303,341,-242,-475,-1215,-394,-105,-342
-93,588,202,-6,-234,-300,-682,-415,-390,-635
-108,21,-97,-658,-329,103,910,223,-152,-426
119,-290,-330,-889,-123,551,1780,777,267,95
240,-549,-117,-617,78,366,770,473,257,369
306,-746,203,-606,-256,70,446,272,189,440
213,-1000,47,-682,-378,102,607,325,209,455
30,-1178,-63,-353,-156,134,535,273,154,236
-93,-1292,-217,-128,49,166,353,167,38,-133
-110,-1315,-271,-201,49,164,251,91,-3,-136
-185,-1223,-147,-242,-53,203,304,66,-28,-81
-75,-925,190,-283,-263,77,213,46,9,1
-71,-599,278,-231,-302,-110,23,-13,78,120
-34,-306,188,25,-97,-117,-28,-27,96,121
92,5,136,335,89,-50,-116,-65,20,-78
91,7,-137,396,79,-93,-304,-185,-136,-216
-59,-328,-355,269,-64,-293,-625,-346,-295,-379
52,-581,-414,241,-52,-492,-956,-353,-182,-146
242,-827,-152,305,279,-399,-977,-246,-15,-3
367,-1143,176,209,374,-183,-842,-221,52,289
95,-1629,-277,-69,302,95,-94,-100,51,494
-111,-1957,-768,186,590,584,670,306,166,262
-83,-2168,-840,-105,330,571,176,395,347,141
-118,-2232,-158,-172,-9,50,-384,62,149,-146
-223,-1995,1130,67,-145,-411,-727,-333,-280,-608
-192,-1760,1176,51,-266,-236,-261,-159,-226,-478
-36,-1621,415,126,-53,24,145,67,-23,-39
-13,-1520,-342,1,-65,35,408,141,11,21
-177,-1183,-313,217,-20,104,374,-33,-201,-280
-368,-743,4,57,16,178,196,-131,-336,-455
-133,-167,129,-498,-182,168,258,-13,-59,-108
151,283,145,-503,-285,165,387,93,130,140
287,434,401,-283,-470,-80,448,78,117,259
490,463,503,-352,-621,-356,334,122,195,559
609,334,317,-203,-407,-436,-271,-29,77,456
269,-75,78,72,44,-175,-535,-111,-42,-63
121,-534,-211,147,193,88,-359,-156,-42,56
160,-790,-178,317,49,46,38,-198,-108,165
59,-867,71,555,-15,-56,151,-334,-357,-280
-278,-1126,-195,796,115,-56,252,-170,-258,-130
-816,-1269,-250,1269,281,20,268,78,-19,-212
-973,-1257,-155,1267,261,-92,-283,-198,-317,-873
-682,-903,0,625,356,-85,-650,-406,-462,-740
-94,-186,166,69,501,-29,-633,-165,-20,96
498,508,11,-843,18,46,-264,221,466,724
492,1003,-168,-1075,-159,94,64,236,400,471
275,1464,222,-471,58,83,129,260,355,147
50,1694,326,-325,179,49,32,262,293,-29
7,1712,-92,-440,177,25,59,251,256,122
72,1619,-14,-397,-58,-93,40,-14,6,140
-64,1343,309,-302,-283,-125,226,-132,-231,-194
18,1060,287,-317,-243,7,408,48,-122,-267
328,866,232,-326,-214,-68,135,130,80,-6
222,485,86,-252,-125,-94,-15,117,167,273
96,188,-8,-94,16,89,158,78,55,323
239,119,-53,137,98,-59,-21,49,100,455
70,-26,-368,651,582,-166,-436,-111,55,213
54,-158,-1230,723,849,19,-258,24,68,70
26,-229,-1593,476,348,236,25,24,-44,-251
92,-96,-759,139,-213,136,-234,-282,-222,-385
232,160,380,-656,-478,-225,-465,-451,-189,34
-8,341,872,-820,-212,-167,-274,-222,40,324
-353,380,354,-723,-44,112,344,267,304,473
-529,596,303,-241,-175,226,752,417,114,-124
-397,954,655,171,-236,164,304,243,-182,-653
-284,957,703,270,-129,103,-223,89,-176,-634
-173,739,448,160,-159,-125,-551,7,7,-253
-139,303,16,-194,-387,-237,-186,224,218,71
-19,-115,-75,-151,-203,-113,-117,164,75,25
128,-411,-79,106,-3,-151,-364,-77,-109,-7
252,-664,-268,498,234,-47,-281,-123,-105,168
172,-976,-790,1142,541,277,41,-50,1,201
-483,-1537,-1254,1301,212,173,-4,-300,-280,-218
-940,-1748,-714,1026,-165,-164,-442,-628,-513,-546
-716,-1235,362,948,161,0,-546,-595,-507,-726
-380,-768,904,-49,102,272,312,22,-179,-511
61,-393,668,-1241,-245,326,739,483,247,20
457,34,39,-1510,-190,314,645,436,344,383
553,498,-98,-1015,-58,338,831,235,48,169
641,988,161,-571,-139,11,291,-39,-97,68
491,1358,528,23,-124,-366,-527,-263,30,431
42,1297,372,220,-180,-272,-433,-267,-8,376
-392,1015,60,6,-384,-70,603,-47,-221,-252
-352,929,10,167,-176,33,1043,323,9,-377
-41,740,-201,172,-2,-63,447,374,234,-132
187,313,-446,-72,65,-104,-183,197,298,218
284,-21,-200,-291,53,-42,-473,-18,212,436
338,-117,342,-180,197,40,-509,-104,114,270
365,-299,488,-358,204,189,224,115,144,206
252,-620,206,-456,-107,79,818,369,181,339
388,-634,-238,-8,-29,-124,246,199,189,431
364,-535,-825,119,187,-44,-98,66,156,354
-146,-466,-516,391,107,-144,-78,0,14,-68
-409,-229,717,716,-62,-310,-79,-188,-291,-528
-106,62,862,-64,-111,-153,12,-197,-270,-278
177,395,137,-475,285,254,187,-52,-49,104
217,599,-498,-590,386,524,446,155,114,214
96,783,-626,-556,139,487,494,277,165,-9
-155,953,-194,-96,-93,202,145,73,1,-138
-263,905,59,194,-89,32,-173,-59,-120,-171
-100,634,-136,241,70,-4,-263,0,-16,-32
-61,251,-99,492,162,-140,-523,-173,-83,-130
-113,-69,-14,488,176,-82,-524,-265,-83,-111
-86,-348,-43,178,83,-3,-185,-130,32,269
-174,-605,-59,43,45,153,398,128,-12,10
-95,-617,348,-220,-181,66,171,66,-28,-286
-82,-651,509,-380,-270,-102,-240,-30,-11,-245
157,-518,317,-28,-102,-226,-321,-44,59,136
249,-359,193,-15,-109,-165,-110,21,82,337
50,-239,-53,17,57,68,292,229,219,365
109,88,-222,82,137,136,186,257,327,369
243,461,-263,-75,-176,-64,-123,104,303,509
213,898,-30,-100,-237,-180,-384,-98,90,410
-53,1245,99,-11,-121,-120,-477,-147,-158,-178
-165,1427,-197,283,77,-27,-448,-79,-162,-334
-139,1371,-664,362,207,40,-292,-107,-161,-264
-173,1145,-680,303,159,6,-42,-92,-162,-189
74,1049,57,387,204,57,99,-120,-224,-205
225,837,590,477,152,-57,-184,-239,-228,-114
-261,263,551,477,63,-252,-191,-235,-229,-148
-197,-15,330,359,33,-210,66,-125,-150,-88
-40,-186,36,155,-142,-110,186,-125,-176,-177
38,-461,-375,-281,-288,22,396,3,-186,-214
276,-508,-408,-263,-56,139,325,184,9,18
262,-399,64,6,46,-10,-183,53,50,5
174,-327,195,-62,17,-151,-439,-103,-49,47
-22,-297,-156,-190,-46,-189,-118,9,171,613
-300,-155,-150,-70,-62,-80,-22,164,275,471
-460,80,-22,-420,-243,100,139,249,143,-89
-377,411,163,-782,-511,-61,38,183,38,-222
-5,837,217,-761,-524,-120,451,322,164,13
110,963,46,-762,-432,-5,814,389,175,102
-175,766,-74,-501,-124,215,741,226,-34,-96
-256,585,-132,-64,227,299,678,55,-137,-359
-205,314,-388,301,593,398,620,38,-56,-350
-199,-84,-861,284,448,402,536,95,35,-299
-122,-368,-769,282,155,153,111,-37,35,-153
100,-422,57,267,81,-76,-244,-174,132,255
273,-501,471,18,172,-171,-480,-294,7,283
295,-621,160,-134,405,-30,-464,-287,-69,-17
216,-626,-53,-215,343,166,-34,-107,-55,-210
78,-513,222,72,413,291,212,-11,-116,-308
44,-303,397,63,183,167,132,14,-64,-229
42,-10,383,20,-214,-121,-212,-54,-12,-106
215,395,555,442,-108,-335,-808,-127,154,197
309,742,309,597,180,-307,-1075,-159,220,313
226,985,145,768,323,-207,-946,-358,-37,132
44,1177,362,746,134,-210,-284,-324,-97,223
148,1303,359,238,-138,-106,106,-61,107,540
185,1180,-166,-165,-195,42,28,42,212,377
-210,760,-1034,-279,-62,203,9,15,62,-292
-554,335,-1103,-164,249,303,79,-4,-129,-758
-570,84,94,368,499,152,-64,-146,-335,-803
-163,11,1025,236,21,59,52,-70,-244,-484
205,-203,704,-513,-759,-51,721,419,191,83
221,-601,133,-613,-768,-84,549,412,256,202
131,-849,-15,-248,-506,-177,-230,8,-17,-125
72,-923,54,106,-436,-452,-672,-267,-173,-123
229,-905,23,231,-288,-443,-647,-265,-50,151
255,-756,-150,51,-43,-17,219,-71,-48,37
0,-749,-272,118,163,397,1245,242,-15,12
-293,-650,-155,476,125,364,1110,369,93,33
-320,-322,117,706,20,18,374,158,60,-5
-144,50,151,548,98,-163,-160,-123,-105,-57
110,310,-128,81,239,31,-173,-92,-21,22
235,320,-367,-288,305,319,86,216,300,190
-37,73,-261,-49,219,295,6,96,122,-70
-189,-248,16,-4,-80,-56,-292,-234,-301,-451
23,-497,193,-186,-53,-228,-369,-181,-206,-433
506,-592,267,-200,279,-366,-702,-58,131,202
922,-706,-161,-397,256,-444,-1007,-107,337,915
575,-1063,-444,-764,-34,-223,-690,-186,143,601
74,-1354,-283,-709,-47,126,86,-26,0,128
-10,-1371,-162,-585,-145,315,701,184,41,128
92,-1119,61,-304,-334,130,310,6,-31,244
235,-818,175,-345,-561,42,31,-17,80,491
-102,-654,191,-394,-566,164,394,258,252,117
-720,-560,166,134,-1,261,258,112,-81,-843
-965,-369,-121,439,451,281,79,-21,-290,-1038
-752,81,-255,528,604,440,472,109,-228,-752
-564,384,-776,360,752,621,578,122,-186,-491
-487,578,-613,609,742,391,419,-61,-271,-447
-254,866,237,471,192,28,410,-123,-257,-348
100,1003,851,-227,-515,-258,34,-12,-17,-85
370,794,889,-344,-609,-389,-213,93,192,209
471,437,555,-268,-363,-360,-298,87,232,391
352,11,244,-205,-192,-327,-584,29,147,305
290,-332,155,-28,-88,-366,-851,-74,117,281
262,-605,74,176,37,-209,-467,-78,71,308
22,-876,-134,250,124,78,99,13,-40,22
-220,-1062,-440,304,177,338,292,-66,-159,-176
-206,-1035,-410,307,287,472,494,-147,-210,-161
-103,-776,-151,141,330,394,411,-86,-185,-150
-48,-593,-264,-93,115,254,137,-41,-117,-122
234,-237,-77,-260,-299,-211,-379,-144,89,362
345,290,234,46,-191,-596,-967,-274,221,668
137,686,126,30,-13,-408,-771,-163,176,250
46,914,54,-102,-12,-74,-231,39,85,27
215,977,122,141,-12,-265,-188,-78,75,223
-85,567,69,198,-30,-213,211,-42,-226,-273
-278,186,153,144,-163,-29,690,-22,-430,-592
-108,-10,-48,-146,-312,121,729,60,-234,-406
87,-119,-60,32,-108,113,543,184,62,-34
167,-321,29,432,26,17,346,213,149,286
198,-609,-49,213,-165,-84,124,213,206,390
228,-744,-406,-261,-167,-127,-158,177,271,446
124,-715,-387,-39,138,-184,-458,-27,141,276
-125,-641,-57,130,235,-96,-562,-97,-15,-79
-148,-434,-65,-116,261,-38,-367,-60,93,199
78,-166,-400,-519,179,-3,-90,11,231,761
-9,149,-564,-782,-108,107,119,126,144,357
-226,522,-478,-500,-310,224,366,174,-104,-225
-642,774,117,113,-339,170,554,65,-413,-854
-569,1064,853,540,-220,-48,167,-25,-343,-805
-177,1155,878,335,-141,-270,-406,-153,-181,-331
1,968,332,-63,-34,-160,-457,-162,-116,-92
124,729,155,-397,-69,-16,-219,9,-5,13
195,497,331,-492,-189,-47,-154,135,143,70
132,149,195,-367,-210,-96,-321,72,89,-64
2,-232,-223,-269,-99,-54,-406,-92,-86,-157
50,-337,-113,52,91,-13,-321,-163,-115,-39
202,-371,-9,160,108,-22,-197,-19,69,164
263,-378,-279,-13,68,-31,-52,141,287,542
321,-291,-422,-24,-19,-170,-225,-10,182,565
169,-167,165,143,-32,-130,-145,-266,-288,-203
-151,-36,506,71,257,265,544,-201,-484,-664
37,88,103,-199,214,256,776,9,-73,178
254,398,-21,-107,-106,-96,198,-84,112,639
-138,653,-6,389,33,-69,-150,-116,-66,-23
-396,643,-441,563,348,191,-397,50,15,-325
-358,533,-764,702,657,365,-426,115,131,-236
-255,170,-327,736,539,243,76,-13,-25,-223
-293,-164,21,334,-155,62,575,-66,-280,-456
-223,-565,-28,-7,-307,111,630,-99,-368,-444
-161,-877,265,378,238,91,371,-119,-207,-114
132,-990,216,95,340,-10,130,-2,149,375
313,-1164,-361,-661,-61,-69,-297,140,423,540
323,-1175,-250,-686,-53,-163,-956,44,430,408
240,-976,735,-22,-3,-340,-1169,-181,115,93
100,-977,1002,-4,-674,-363,-324,-34,61,196
64,-1054,407,-363,-967,-95,669,260,141,417
36,-957,-162,-116,-621,173,1157,387,26,186
-44,-661,-235,199,-304,199,813,223,-124,-136
-209,-339,-290,-42,-97,228,446,110,-190,-414
-218,-37,-206,-436,17,325,588,106,-176,-316
46,303,-10,-601,-35,238,371,107,-4,-58
166,321,39,-548,-62,159,11,109,52,36
292,263,353,-372,-66,61,-146,-20,4,222
277,10,455,-162,24,-95,-447,-88,149,435
201,-431,170,-170,-68,-228,-485,86,352,338
-23,-888,-144,-191,-214,-213,-41,180,217,102
-338,-1218,-143,299,137,-29,10,40,-30,-164
-387,-1527,-333,648,474,125,13,-13,-33,-193
-245,-1692,-366,1096,403,-38,-137,-83,-11,-110
-284,-1716,-368,1197,153,-304,-510,-332,-183,-240
-305,-1581,-225,722,111,-107,16,-303,-372,-406
50,-1145,459,230,216,229,710,-64,-261,-233
96,-861,500,-412,-10,211,473,102,33,-72
72,-601,188,-864,-82,206,231,152,149,86
444,209,58,-332,-256,-199,-106,-40,165,614
-3,382,47,-210,-245,-324,-360,-74,10,43
-196,408,77,-104,-81,-315,-531,-42,55,-95
43,476,354,-108,152,-177,-677,-134,40,-33
201,302,162,-239,256,-49,-456,-161,-5,95
226,-170,-179,-363,151,-53,-135,-41,170,478
61,-582,-290,-275,37,171,293,62,197,174
-48,-818,-294,74,87,385,685,118,44,-205
-26,-965,-298,597,254,276,364,91,-22,12
175,-1009,-275,641,320,-111,-621,-185,-24,236
269,-1052,-119,280,422,-196,-826,-167,-18,27
161,-1016,-12,-14,426,-80,-283,-52,-63,-167
-92,-951,-107,-372,173,66,216,50,-71,-260
-179,-746,-131,-390,-78,220,545,243,51,-150
-244,-386,112,-113,-217,266,600,147,-34,-263
-151,-11,272,62,-232,270,628,73,-40,-143
-29,339,154,40,-210,193,505,72,84,151
-19,708,126,-76,-82,-64,103,-2,133,84
-68,941,141,36,15,-191,-274,-31,23,-100
110,1032,109,175,73,-195,-459,25,79,106
430,1033,-37,-61,-40,-197,-520,-46,75,376
345,835,-233,-355,-205,-105,-145,-141,-139,203
53,366,-413,-272,-120,100,605,-4,-129,109
-80,-35,-387,-55,-75,245,883,198,34,99
-215,-400,-403,56,19,226,541,218,63,-202
-176,-531,-105,642,487,110,87,-3,-120,-349
-201,-622,179,617,383,-114,-274,-258,-327,-482
25,-545,125,86,-135,-160,-305,-139,-99,-189
233,-303,238,27,-261,-133,-247,-35,86,97
163,-67,186,-91,-170,-113,-54,-13,60,116
-42,87,80,26,-48,66,155,88,63,27
-156,282,126,145,-134,129,11,35,0,-167
-151,605,116,219,-243,-25,-190,-102,-97,-198
-44,1046,84,169,-250,-228,-401,-212,-179,-164
-37,1314,-70,-34,-121,-191,-333,-157,-112,-88
-62,1391,-117,-12,-40,-79,17,-61,-49,105
45,1451,108,-151,53,34,69,-11,-31,218
116,1393,171,-370,104,97,-291,-37,-11,135
245,1138,-90,-504,-51,-24,-339,114,290,325
210,805,-131,-195,-32,-103,-442,115,361,403
331,556,-57,265,-63,-341,-887,-8,327,563
192,190,-246,437,-93,-386,-923,-65,262,417
-217,-175,-379,920,93,-227,-638,-287,-229,-255
-369,-395,-202,711,92,-37,-27,-246,-365,-384
-3,-192,420,76,50,-17,149,96,43,155
201,98,703,-536,1,-109,7,216,164,151
-97,88,305,-389,-51,2,211,111,-134,-380
-447,59,-73,-104,-97,289,813,-21,-460,-672
-185,351,-291,-328,-176,301,935,-85,-403,-277
362,938,-199,-374,34,146,686,-7,-62,313
565,1439,-188,-300,447,137,242,104,301,783
166,1497,-701,-373,522,323,193,202,296,531
-384,1294,-840,-333,264,415,242,114,22,-182
-552,1186,-12,237,282,343,375,-10,-217,-510
-299,1245,981,404,12,70,515,0,-241,-386
96,1154,952,-50,-239,-122,282,20,-99,-106
222,798,434,-179,-115,-127,0,97,112,189
130,374,-151,-168,-113,-7,75,217,270,241
-24,15,-723,-197,-157,141,110,76,79,30
-239,-279,-725,16,12,472,435,-18,-270,-387
-328,-331,-248,378,569,747,675,121,-223,-508
-321,-296,82,349,739,460,332,68,-188,-500
-195,-259,-95,149,396,73,-203,-140,-250,-539
100,8,-445,198,7,-162,-502,-125,-34,-94
316,351,-387,83,-270,-272,-554,-9,259,550
257,634,288,-92,-573,-233,-269,94,235,408
49,895,424,-167,-449,-83,-6,26,-57,-247
237,1273,233,86,21,-171,-411,-103,20,-61
344,1525,256,168,131,-486,-662,-64,188,404
184,1467,527,483,-2,-533,-653,-77,123,266
-234,1123,598,890,-147,-453,-819,-285,-125,-141
-601,582,280,699,-382,-215,-113,-372,-384,-461
-402,163,-10,25,-426,116,984,-29,-196,-215
44,-31,-88,-562,-254,234,1080,336,213,343
497,-57,101,-951,-190,104,464,391,462,639
517,-257,148,-716,-130,-59,8,240,425,428
459,-522,152,11,90,-150,-364,137,451,621
414,-648,-84,862,132,-365,-967,-196,324,745
-135,-866,-422,1327,100,-491,-1215,-600,-198,-38
-642,-1042,-525,773,-24,-324,-513,-512,-523,-717
-352,-703,-270,-121,144,200,477,-37,-346,-446
86,-168,379,-682,144,452,909,328,-17,-91
78,195,539,-1045,-82,320,744,350,20,-159
104,496,128,-1185,-131,166,169,297,169,-6
152,743,23,-812,-120,-89,-634,81,234,133
215,825,-48,-453,-134,-223,-889,-113,122,164
250,772,-72,-305,-112,-137,-322,-72,-19,76
179,664,-17,-175,11,72,206,6,-65,-51
-125,244,-277,-140,191,394,828,103,-162,-305
-301,-260,-656,121,583,479,653,84,-105,-218
-345,-700,-1026,283,639,441,611,215,97,20
-437,-1107,-889,95,198,279,800,278,118,71
-467,-1232,-219,158,17,87,764,59,-130,-275
-32,-1018,171,158,-91,13,427,-18,-181,-302
369,-929,-531,-162,-245,39,204,130,130,377
403,-883,-589,-28,-191,34,148,224,321,756
132,-621,747,193,-255,-157,-163,-11,40,98
-173,-361,1280,262,-67,-271,-582,-327,-330,-637
-327,-347,767,709,522,-84,-607,-380,-386,-717
-305,-221,-132,766,482,54,-551,-286,-241,-496
-201,153,-710,541,205,52,-513,-236,-104,-282
194,800,-253,660,362,16,-586,-118,98,91
457,1118,557,261,29,-105,-750,-83,219,365
431,1017,910,-480,-587,-327,-628,-19,227,414
445,884,1151,-809,-642,-304,-41,192,293,405
456,576,757,-563,-356,-228,21,191,255,287
147,62,287,-70,-258,-291,-108,79,110,238
-222,-384,25,139,-373,-321,-157,8,34,124
-374,-724,-290,-48,-426,-159,69,10,29,-30
-288,-896,-676,-161,-154,48,590,-16,-105,-112
67,-685,-738,-160,240,181,580,30,-130,-50
183,-525,-502,-147,308,224,381,122,-13,29
-59,-486,226,-76,152,189,310,104,28,-12
-197,-256,771,-371,-131,112,243,67,-20,-125
-114,101,555,-298,-188,41,126,42,-84,-272
-30,286,211,163,-110,-15,54,21,-73,-294
-155,390,-220,268,1,11,110,-26,-136,-430
-65,653,-630,387,356,170,23,38,-6,-152
-55,782,-831,400,468,27,-408,-100,62,295
-309,633,-472,876,936,-142,-870,-286,-35,128
-360,453,199,772,814,-286,-1139,-257,-27,-143
-73,185,292,-390,-248,-427,-689,-158,-14,13
314,-4,148,-561,-684,-133,68,0,32,274
445,-239,53,-700,-727,227,509,123,1,120
497,-668,-264,-898,-667,173,749,256,95,163
276,-1166,-201,-648,-320,61,345,267,206,194
27,-1435,39,-323,-121,144,202,313,238,15
45,-1478,170,-149,-105,25,37,263,311,66
67,-1433,-41,-312,-218,-219,-243,-20,238,555
333,-1204,-230,-184,-235,-203,-134,-49,339,1022
76,-988,-148,59,-310,-129,197,-5,31,185
-555,-761,252,463,-97,-122,537,-88,-488,-991
-539,-393,492,548,347,120,572,60,-279,-697
-401,-54,360,204,355,145,222,-40,-146,-236
-530,167,50,-82,243,300,224,-129,-355,-712
-444,298,-10,-129,264,416,158,-8,-230,-692
-75,372,92,0,286,188,-336,-14,-8,-163
139,286,51,12,86,-78,-664,-130,25,153
132,35,-155,269,225,49,-157,47,128,243
98,-296,-520,640,583,348,416,286,264,237
-95,-680,-703,648,312,263,349,114,60,31
-95,-793,-57,259,-145,-59,118,-184,-204,-88
110,-645,545,5,-52,-134,-163,-185,-99,91
261,-602,348,-455,-214,-44,81,40,71,247
466,-474,59,-718,-318,87,350,156,128,198
424,-387,37,-365,-217,107,309,223,151,156
202,-224,237,289,-179,-97,-87,41,-11,-48
-184,-187,198,428,-334,-285,-43,-169,-346,-392
-158,37,-56,53,-353,-202,347,15,-186,-196
-13,453,-236,-148,-295,-199,141,141,32,-34
-32,770,-358,-53,-254,-256,-91,227,152,74
-4,940,-388,-47,-81,-109,-41,292,300,361
6,912,-284,157,182,57,-6,123,174,366
88,882,155,311,233,-122,-289,-206,-98,97
365,853,282,183,568,-92,-518,-293,-61,181
126,232,-727,-55,1118,334,-437,-131,149,321
-364,-556,-1756,18,1283,459,-375,-38,196,238
-380,-846,-1388,332,731,166,-449,-204,10,0
-326,-782,505,611,46,-147,-375,-297,-283,-522
13,-667,1862,269,-498,-326,-395,-208,-251,-581
168,-788,1656,-488,-647,-187,-38,-56,-139,-331
180,-919,631,-881,-528,36,250,181,70,-6
478,-628,359,-259,-104,-36,-378,27,154,133
556,-356,527,330,117,-189,-771,-109,173,128
201,-452,170,101,-156,-234,-634,-229,78,382
162,-341,-123,-268,-361,-40,-37,-132,-8,494
218,82,-129,-264,-357,180,679,213,23,138
60,378,-138,-195,-400,151,982,270,100,103
-136,349,-159,-455,-520,0,899,258,212,366
-96,287,26,-349,-285,-48,476,162,79,110
-223,99,-32,155,-7,-136,-298,-98,-151,-325
-338,-222,-519,587,76,-144,-560,-120,-43,-224
-305,-514,-1109,777,302,160,52,29,27,-77
-552,-772,-1050,1020,821,576,830,112,-237,-425
-413,-814,103,1026,969,329,208,-10,-196,-312
132,-574,889,358,563,-125,-708,-250,-40,120
205,-482,973,-371,41,-170,-649,-339,-129,175
-164,-517,516,-853,-167,184,411,-40,-147,-121
-237,-405,-113,-885,-297,319,933,245,16,-148
-105,-190,-403,-546,-375,87,673,244,115,21
-146,38,-425,-67,-150,60,492,202,110,-11
-386,178,-231,124,66,88,256,-28,-148,-265
-311,650,149,304,388,214,400,-76,-251,-255
54,1317,199,346,178,0,37,-108,-142,-95
231,1583,-388,-269,-500,-239,-260,-63,-3,39
357,1638,-419,-228,-577,-195,-102,89,123,197
405,1656,536,-63,-498,-258,-118,-2,26,115
490,1537,870,-52,-228,-332,-613,-186,-45,178
552,1138,463,-26,87,-208,-876,-170,192,752
556,604,195,-164,59,-150,-1017,-56,436,1076
275,185,-48,-81,228,-79,-1178,-58,296,573
-167,-60,-56,7,319,33,-901,14,106,-150
-252,-191,106,-264,-52,96,321,223,87,-374
-77,-269,45,-682,-508,84,1314,408,80,-189
-31,-300,-141,-859,-647,142,1425,381,-24,-110
-51,-198,-166,-491,-445,222,1245,282,-77,-203
-89,-31,-198,-212,-218,275,946,293,1,-162
-105,264,-249,-202,-170,164,595,228,53,-27
-213,535,-376,-198,-33,83,282,136,72,14
-191,812,-428,46,320,129,-86,-29,28,115
72,1235,-156,289,345,-67,-534,-172,48,284
290,1604,196,216,177,-262,-699,-174,14,199
-302,1344,122,271,272,166,-185,-102,-133,-175
-210,1017,-154,424,483,212,57,-36,-23,-83
-34,624,-322,616,476,76,-130,-44,8,-131
-123,115,-465,462,-34,-145,-336,-49,44,-134
49,-132,-94,292,-325,-460,-815,-199,159,416
-13,-306,157,-28,-337,-283,-317,-171,-4,234
-181,-425,294,-223,-194,49,382,-28,-216,-311
-160,-405,587,40,89,88,333,-61,-359,-511
-258,-434,535,299,120,51,223,-118,-409,-530
-217,-467,53,122,81,83,91,-55,-212,-238
-6,-202,-313,-91,271,206,90,42,-27,-69
150,217,-203,-97,280,224,217,87,57,-26
404,584,146,-154,114,45,-75,63,196,225
588,882,229,-264,50,-69,-385,-39,249,252
510,1127,287,-219,18,-127,-575,-200,31,96
396,1187,338,-103,14,-74,-428,-240,-32,64
270,1034,151,-63,21,50,186,21,138,194
-81,727,36,-36,-65,-51,169,105,151,68
-429,293,-47,-39,-151,-122,53,-20,-32,-202
-660,-159,-146,-26,-87,75,474,32,-162,-322
-491,-375,-156,223,141,86,171,42,-66,-239
-126,-481,-417,490,695,63,-340,-28,68,-23
143,-554,-1011,555,1289,212,-421,121,286,288
301,-567,-970,675,1107,139,-755,41,416,530
145,-661,-172,666,155,-248,-1002,-379,55,304
-47,-537,998,704,-402,-464,-462,-503,-250,-172
28,-283,1064,365,-671,-288,394,-181,-120,-117
174,-73,403,-425,-1006,-136,801,188,152,335
288,258,-3,-712,-643,37,747,412,331,369
225,581,120,-614,-276,82,400,243,169,73
-42,848,202,-586,-202,75,212,-40,-163,-350
-236,991,193,-528,-215,13,249,-34,-272,-415
-152,965,88,-230,-41,56,308,81,-156,-281
97,936,-73,211,157,20,19,30,-41,-105
19,700,-153,399,159,-135,-551,-173,-41,-113
-101,299,-216,272,-11,-273,-967,-325,-77,-147
-39,-34,-28,509,28,-246,-853,-345,-118,-128
58,-295,234,394,92,-100,-297,-178,-141,-125
3,-659,2,-110,-24,116,482,195,50,-95
-119,-1012,-138,-320,-61,212,635,345,235,76
38,-997,116,-242,-50,98,517,164,102,136
146,-884,205,-270,-41,47,503,151,14,53
15,-902,9,-339,-1,85,423,163,-79,-23
-103,-778,-105,-387,-7,118,258,116,-94,-15
-193,-584,-128,-316,-18,139,228,106,-26,-64
-229,-339,-56,-149,7,211,269,41,-115,-191
-203,47,9,-53,18,236,247,-32,-195,-232
1,549,-65,-73,44,97,139,14,-33,-30
174,921,-95,21,257,64,-53,51,140,165
288,987,-376,-52,280,-134,-569,42,344,487
433,972,-549,-61,74,-432,-1064,-154,362,769
335,765,-298,128,43,-304,-1035,-398,39,515
235,478,-54,17,59,63,-58,-231,-299,-243
-33,107,-25,15,5,200,1033,75,-302,-534
-395,-325,-55,554,202,-58,235,-119,-292,-285
-235,-464,14,830,331,-348,-840,-264,-86,75
90,-527,220,730,206,-399,-945,-77,253,274
181,-467,621,966,165,-422,-839,-152,159,65
-54,-448,894,724,6,-261,-167,-97,-2,-59
-211,-466,411,-99,17,158,455,104,-108,-27
-271,-326,-292,-420,90,384,717,348,79,-27
-373,-161,-654,-230,-48,311,785,314,24,-96
-440,32,-797,32,-247,181,656,129,-265,-326
-226,423,-702,-595,-489,139,619,188,-161,-177
-2,888,185,-683,-533,0,435,129,-111,-23
1,1082,849,-376,-463,-141,156,-30,-203,-55
210,1109,651,-404,-415,-179,-129,-105,-59,118
369,849,167,-309,-195,-57,-239,-76,101,288
387,459,92,-209,10,54,-249,68,220,417
343,-11,55,-259,-65,-72,-335,86,212,466
307,-480,-359,-287,-12,-63,-108,118,160,334
91,-993,-656,-45,342,46,-27,184,205,199
211,-1203,-654,-84,236,-83,-318,218,452,509
-40,-1221,-107,47,143,-85,-515,38,122,-95
-349,-1136,534,557,458,36,-516,-164,-200,-492
-95,-994,226,466,352,63,-314,-150,-177,-153
73,-929,-399,259,67,299,477,167,24,35
-53,-793,-256,446,-1,276,644,82,-82,-79
-373,-538,528,952,14,-29,256,-283,-474,-361
-524,-159,681,595,-296,-162,192,-393,-619,-589
-249,311,388,-228,-265,28,418,18,-170,-281
61,576,-24,-960,-235,313,596,376,268,102
401,676,-319,-1129,-319,225,443,380,394,322
555,668,-156,-774,-378,-71,43,121,230,315
361,455,82,-368,-270,-152,-176,-90,-28,106
91,6,49,-134,-107,-96,-311,-117,-90,51
-60,-455,-70,-19,8,-120,-524,-124,30,210
-175,-824,-71,63,136,-69,-516,-87,50,87
-89,-967,147,75,142,-34,-423,-48,-18,-75
199,-929,253,59,36,-161,-332,-68,54,122
363,-920,-108,148,97,-304,-454,-166,73,361
191,-1050,-451,277,225,-435,-799,-237,61,328
-331,-1264,-405,345,211,-342,-923,-340,-132,-88
-279,-1088,-136,250,40,-19,-403,-220,-190,-222
-22,-633,-192,324,-83,190,-104,-184,-247,-229
-178,-318,-98,743,181,352,480,-254,-547,-600
-259,3,276,974,472,370,844,-219,-560,-771
-339,211,340,284,-93,51,542,-54,-192,-394
-461,273,121,82,-231,16,423,122,107,-62
-392,254,181,300,104,246,500,300,204,-126
-145,207,368,-19,137,376,454,362,232,-127
217,73,217,-663,100,449,387,315,354,168
293,-239,13,-853,160,342,166,130,246,185
167,-509,-127,-687,34,39,-244,64,211,151
98,-745,-137,-591,-193,-198,-228,270,386,246
376,-864,-27,-497,-338,-329,-309,294,481,652
401,-953,-90,-257,-149,-301,-401,111,354,589
305,-949,-328,11,104,-61,287,145,211,361
290,-709,-404,226,177,-49,226,71,90,233
76,-523,-473,216,-60,-268,-255,-179,-192,-114
-48,-170,-273,447,8,-196,-262,-213,-192,-310
10,215,38,403,28,4,-40,-70,-108,-288
164,561,337,329,55,18,-63,-75,-61,0
-12,715,196,250,129,104,133,-62,-89,222
-199,793,-143,-268,145,324,407,172,102,254
-430,846,-137,-727,-91,291,386,272,25,-161
-568,795,-373,-497,104,246,385,126,-167,-486
-425,780,-511,318,414,169,253,48,-171,-526
-364,425,-418,447,-2,116,462,155,-98,-507
-240,151,149,580,-548,-321,119,-164,-263,-427
135,238,908,552,-508,-548,-277,-333,-266,-209
292,116,920,44,-146,-217,-158,-71,16,61
386,-85,770,-530,47,88,-108,75,185,374
464,-208,499,-797,-14,114,-132,112,207,421
317,-312,125,-752,-113,11,0,169,316,362
128,-301,12,-360,17,-36,0,128,214,188
-49,-220,-51,-163,44,76,129,92,78,-5
-227,-88,-119,-136,-78,139,158,-9,-129,-213
-232,143,-70,37,-52,118,38,-69,-141,-187
8,496,-88,160,71,109,-24,43,132,193
60,770,-149,294,98,-54,-343,-54,86,162
-121,899,76,506,150,-196,-704,-236,-69,-300
-242,795,41,506,488,-119,-695,-257,-114,-403
-331,437,-673,671,817,-27,-485,-391,-308,-301
-373,47,-799,1101,820,30,-447,-533,-573,-458
-415,-412,-582,630,60,-51,-397,-420,-502,-580
-383,-699,-41,78,-313,-35,70,37,-125,-396
126,-605,797,-27,-303,-145,-56,273,278,202
601,-605,906,-606,-513,-266,-218,288,438,696
652,-779,664,-748,-537,-151,24,213,254,499
382,-1118,274,-2,-380,-103,-243,-15,54,181
-67,-1521,-22,173,-578,-169,-33,-277,-306,-291
-242,-1578,-99,138,-415,55,805,-94,-380,-385
-78,-1264,114,53,45,234,654,166,-23,-71
117,-1010,75,-322,169,244,303,276,236,296
322,-812,-280,-655,198,317,324,369,366,571
432,-554,-455,-590,169,308,291,306,294,520
80,-386,-376,-340,118,264,410,141,-22,15
-86,-254,-98,-156,26,217,468,78,-96,-142
114,-208,-222,-135,22,114,184,17,32,125
32,-298,-555,169,420,197,-101,-89,-49,23
-179,-579,-419,458,538,143,-514,-251,-104,-92
-148,-920,-115,-230,67,-276,-1032,-377,-33,0
17,-952,315,-334,-159,-541,-1140,-339,-9,-64
172,-929,478,-83,-110,-288,-459,-25,26,-129
157,-1175,202,-364,-411,24,343,301,82,73
285,-1256,18,-200,-532,-117,611,337,103,196
157,-1209,-382,-140,-382,-112,491,298,138,267
-286,-1174,-751,-292,-197,124,510,260,68,37
-442,-903,27,-69,-191,60,359,78,-22,-251
-378,-435,826,195,-184,-68,59,-161,-210,-437
-450,-106,689,336,-2,-49,-52,-224,-290,-483
-477,196,228,394,236,102,138,-199,-331,-399
-310,577,-22,450,162,190,241,-35,-146,-245
-246,912,-172,397,-35,66,127,-70,-38,-200
-333,1128,1,592,122,64,225,-140,-212,-279
-79,1307,139,463,306,190,175,13,-4,-40
133,1259,-42,216,157,208,-76,71,116,209
266,1016,-380,-37,222,178,-232,-53,62,342
341,699,-808,-520,528,176,-5,-26,65,335
249,361,-971,-688,540,157,48,40,73,70
133,202,-563,-362,224,-138,-458,-155,-44,-115
27,138,454,-52,-209,-195,-195,-40,-23,-85
-6,116,752,124,-211,-84,287,93,37,-85
-5,197,545,785,167,-144,127,-34,32,-141
55,399,254,845,11,-246,-201,-145,-5,-136
56,579,63,478,-312,-132,-205,-86,53,-31
204,856,174,68,-308,-24,-186,-4,221,203
318,1183,304,-435,-284,67,23,111,311,355
289,1420,93,-775,-151,222,539,240,158,320
151,1620,-72,-775,14,222,683,244,-12,44
113,1796,-81,-582,0,80,213,149,14,-48
96,1710,-172,-267,-252,-129,-62,111,162,365
-11,1543,-135,398,-131,-137,-101,115,148,255
-269,1209,-190,613,62,-36,7,163,-33,-242
-204,834,-256,429,160,-46,24,119,-83,-268
-2,536,-150,198,49,-210,-263,-119,-122,-121
27,247,-139,-223,-201,-295,-382,-207,-142,28
-85,-89,-152,-228,-53,-169,-502,-185,-59,-40
28,-245,103,-14,301,-6,-642,-183,-12,13
18,-262,166,0,382,103,-530,-203,-81,67
-68,-283,-291,-158,424,221,-371,-106,-70,46
103,-68,-357,-98,529,321,140,86,-13,21
430,254,-406,-278,270,372,655,295,144,194
320,437,-227,-93,-155,34,93,-12,10,269
-34,677,539,436,-403,-384,-417,-337,-203,178
-252,994,920,290,-543,-332,-15,-64,-76,-40
92,1402,541,-207,-445,-174,80,277,232,180
502,1647,260,-379,-294,-230,-355,164,220,384
409,1543,267,-248,-191,-288,-942,-198,-20,217
69,1306,223,-190,-183,-235,-967,-248,-163,-128
-233,818,173,-29,-202,-104,-235,-59,-150,-262
-291,413,93,82,-220,-11,858,67,-158,-216
-171,175,19,177,14,111,818,132,-74,-131
-244,-114,46,527,372,217,391,96,-57,-62
-468,-449,98,629,513,85,57,-85,-148,-126
-485,-627,-153,147,372,178,77,11,-9,-154
-262,-631,-559,-259,311,236,254,145,77,-77
129,-446,-489,-88,244,86,339,94,78,198
275,-268,-445,-279,-195,68,480,180,134,430
308,100,-113,-207,-508,-1,255,35,-82,59
442,508,90,92,-356,-59,-34,-150,-249,-223
283,559,-64,-229,-361,-153,7,-55,5,281
-281,495,30,-290,-200,-58,141,51,79,233
-318,750,364,-142,8,44,122,16,-84,-225
-379,818,313,54,137,25,-84,-85,-231,-522
-585,573,78,400,306,-69,-461,-230,-292,-637
-527,231,-294,440,380,-56,-570,-254,-236,-465
-278,-58,-178,352,356,-68,-322,-201,-215,-330
97,-136,303,234,288,43,192,43,10,-3
361,-185,436,-36,-103,56,110,128,180,227
557,-349,294,-436,-420,-37,-38,196,365,478
445,-627,-39,-591,-479,-161,28,126,324,557
182,-853,-165,-488,-433,-196,10,15,206,411
23,-889,-113,-147,-239,-122,-116,-30,105,180
-205,-884,-3,190,-60,-1,-73,8,-8,-96
-382,-849,95,231,-88,45,266,58,-97,-237
-335,-681,-21,82,29,140,424,134,-93,-209
-190,-427,-138,-31,153,226,423,180,20,-85
-30,-99,-148,-87,135,245,454,209,62,-63
86,233,-230,-210,1,97,208,170,108,4
148,439,-236,59,33,-161,-181,-66,45,122
46,358,-197,663,379,-145,-497,-334,-165,-19
-95,117,-190,717,450,-84,-734,-343,-149,-40
53,-84,62,307,367,-115,-753,-158,91,117
-184,-1616,231,-21,-280,-1,101,-253,-330,-447
26,-1589,-155,-385,73,187,303,-2,-40,15
135,-1556,-677,-488,124,299,536,288,201,264
33,-1472,-643,-249,69,179,439,250,112,61
-193,-1179,182,36,-9,0,246,116,-29,-221
-239,-752,677,-57,-57,-43,55,-1,-128,-286
-19,-290,571,-258,-155,10,0,-81,-108,-102
104,90,406,-292,-169,14,71,-64,-42,68
110,341,78,-254,-110,48,152,12,41,157
241,552,-1,-90,-60,17,-3,-54,28,174
198,561,95,76,-24,-126,-279,-155,-89,144
160,423,154,211,187,-233,-566,-197,-63,208
202,177,6,102,245,-196,-696,-184,-14,290
12,-251,-176,-122,44,-113,-456,-2,138,154
-98,-554,-84,-58,-63,20,136,186,100,-180
-186,-810,39,0,-121,73,218,204,-57,-402
-182,-1015,62,-37,-136,-14,-286,46,-115,-385
112,-1014,-83,-109,-221,-200,-719,-90,35,80
173,-1008,-326,-219,-279,-123,-482,-69,165,222
-26,-1057,-609,-75,-75,296,463,12,-46,-89
-133,-959,-696,197,105,553,967,165,-169,-285
-167,-578,-184,260,246,433,579,18,-252,-334
-215,-238,135,418,470,187,-76,-263,-302,-239
-380,-75,176,437,286,4,47,-276,-265,-154
-295,258,165,247,-14,23,517,-15,-129,-176
-26,517,-212,200,248,209,465,306,260,175
104,473,-579,113,428,169,43,303,430,415
278,531,-252,421,199,-129,-560,-13,340,355
239,457,219,474,-161,-605,-1305,-361,238,304
-133,66,285,479,-223,-787,-1255,-452,130,92
-18,-110,380,58,-263,-347,-165,-207,8,-9
67,-183,365,-462,-33,291,1078,60,-239,-283
79,-245,477,-391,374,459,1162,217,-163,-391
202,-355,349,-527,234,195,536,285,217,-11
233,-477,48,-582,139,-15,77,142,281,291
133,-623,-188,-460,189,86,97,108,221,352
4,-641,-324,-478,202,387,492,219,109,140
82,-234,-151,-375,4,214,437,117,-20,7
159,207,152,111,-194,-113,44,-43,-69,-47
199,498,59,487,-201,-271,-322,-30,97,248
315,830,-180,666,21,-318,-657,-214,28,359
-216,1134,307,1448,197,-113,-417,-444,-393,-237
-925,762,524,836,138,16,118,-220,-434,-703
-543,792,550,22,76,-73,-196,-83,-231,-441
103,880,434,-661,-136,-66,-294,129,98,-11
445,587,-351,-1093,-168,70,-256,282,335,288
329,6,-956,-1134,-329,175,56,285,302,362
95,-425,-816,-632,-358,224,501,180,84,149
105,-533,-104,-39,-133,217,610,221,184,64
29,-661,493,80,-189,-47,348,240,243,-105
110,-718,677,12,-329,-263,53,73,131,-200
245,-779,326,-339,-489,-322,0,-13,132,344
345,-794,-97,-602,-613,-431,-193,-34,168,701
229,-720,-141,-353,-308,-185,-252,-22,77,224
-148,-777,-399,-167,25,214,-38,-58,-198,-366
-213,-672,-408,46,194,305,194,-49,-187,-287
-130,-454,-89,128,145,115,-26,-88,-39,36
-183,-278,201,177,200,2,-540,-162,-52,-25
-328,-299,-30,258,246,-7,-675,-41,-35,-220
-326,-332,-380,118,132,62,-373,77,-14,-274
-406,-417,-327,93,-80,174,158,-117,-314,-542
-364,-611,8,283,-223,161,820,-175,-326,-393
-162,-769,15,342,-97,156,872,-68,-113,-31
-96,-882,378,539,111,144,457,-116,-204,-156
64,-901,618,418,419,102,166,-112,-109,-184
316,-888,282,135,708,143,81,40,152,39
516,-830,-16,-184,430,54,-62,134,301,216
575,-737,-166,-193,56,-64,-306,41,280,267
199,-726,-37,416,249,-61,-478,-171,-3,-31
-187,-599,195,733,489,-174,-520,-274,-153,-138
-32,-246,278,390,371,-295,-405,-41,208,432
76,215,378,67,-85,-369,-356,80,395,620
-66,651,299,-185,-610,-336,-422,-53,-7,2
140,1088,196,-349,-729,-184,-328,24,36,26
177,1260,187,-376,-476,46,-69,151,132,266
48,1227,89,25,-14,239,312,178,85,319
-160,1023,-237,479,151,78,146,46,-3,-8
-356,578,-473,557,-73,-272,-184,-51,13,-214
-185,214,-395,181,-52,-209,-63,2,29,-77
67,86,-311,182,306,230,389,238,135,59
146,-7,49,671,472,350,327,172,45,66
-68,-323,310,366,37,138,198,-50,-235,-243
-241,-600,276,-446,-261,59,247,-56,-212,-385
-108,-656,156,-882,-294,19,339,82,-72,-174
89,-613,-80,-696,-236,19,293,161,-14,39
458,-464,-271,-611,-185,80,304,241,99,273
562,-267,-227,-520,43,173,248,231,161,346
232,-82,155,-72,453,242,-129,-65,-51,-7
77,134,133,71,398,128,-599,-343,-203,-112
90,262,-621,-436,64,-67,-786,-318,-4,306
46,509,-518,-200,18,-195,-1017,-304,140,346
-276,521,-137,538,423,-7,-793,-292,-52,-216
-528,135,-645,722,368,224,373,-47,-245,-603
-516,-213,-1377,409,-33,219,933,169,-104,-463
-450,-363,-807,842,18,-27,319,-159,-295,-499
-268,-375,1205,1320,-15,-323,-67,-458,-600,-557
404,-196,2135,199,-281,-230,72,-132,-195,-13
718,-351,1102,-1017,-412,34,121,180,226,357
360,-879,59,-1363,-439,143,343,353,418,545
65,-1141,-274,-1092,-325,110,834,427,333,371
36,-984,154,-501,-134,38,654,373,255,59
44,-809,393,-217,-139,-118,130,250,206,34
87,-635,391,-90,-107,-145,-160,146,135,85
147,-334,247,-103,-99,-158,-297,40,186,198
-145,-154,11,-198,-139,-106,-268,-47,55,62
-320,108,-127,-67,-69,45,-72,-33,-147,-170
-174,528,-180,226,-12,150,268,52,-74,-97
-67,785,-403,64,-129,71,131,50,5,76
-31,826,-545,175,292,61,-106,-97,-144,-52
63,805,-421,536,836,63,-313,-158,-221,-284
86,648,-298,365,574,32,-401,-105,-20,-131
65,315,17,332,36,-186,-446,-184,9,368
-120,-60,156,191,-147,-181,-67,-60,-18,240
-253,-320,155,-155,-225,17,300,113,4,-191
-177,-532,-32,-235,-308,28,240,92,-15,-216
-49,-678,-139,45,-322,-68,-118,-126,-109,-60
17,-699,-149,76,-267,77,-57,-162,-117,-98
-31,-647,-191,-172,-191,247,120,20,-81,-235
-171,-636,-349,-134,-121,238,530,213,-37,-242
-184,-436,-98,33,-58,249,778,224,-77,-219
-34,36,451,-140,-118,185,467,199,9,-58
75,424,408,-199,-64,226,284,170,54,76
178,780,-58,-312,-54,171,115,105,38,120
108,1235,-49,-298,-52,-27,-55,0,-27,28
-49,1517,96,247,226,-201,-213,-59,-42,41
-95,1434,-31,519,299,-357,-424,-99,-3,16
-156,1268,-51,405,-30,-537,-644,-248,-75,-127
-173,1101,-54,383,-3,-296,-415,-134,-18,-8
61,985,127,593,166,-1,-28,33,42,117
256,831,236,478,141,-36,-56,-14,2,206
376,541,-143,-87,17,-166,-361,-74,129,588
561,380,-188,-412,-129,-290,-471,-70,252,781
440,249,121,-475,-151,-209,-245,45,218,532
220,154,35,-530,-126,-44,-52,102,81,209
-30,61,-364,-438,-11,74,1,109,103,-54
-330,-95,-673,-115,222,157,-184,54,67,-339
-272,-33,-463,277,434,155,-240,-13,-22,-292
-75,111,-340,156,280,133,235,102,59,-42
-35,457,-269,-81,-78,53,401,75,13,8
38,1049,359,397,-159,-84,32,-80,-69,20
40,1432,560,368,-137,-91,-251,-101,-51,58
12,1444,489,-234,-297,-39,42,-11,-3,83
-4,1341,386,-349,-231,-14,235,35,0,109
-115,1170,276,-131,-83,-74,9,14,-54,-6
-84,826,80,-122,-107,-205,-101,104,67,-56
171,499,-61,-69,-38,-236,-340,86,99,59
159,143,-107,99,167,-13,-479,-52,-66,-61
-123,-317,-115,105,284,271,-162,-71,-198,-240
-377,-725,-99,18,262,353,268,-103,-334,-401
-333,-844,2,25,81,202,338,-64,-220,-303
-247,-723,87,21,-93,-18,281,-14,-26,-111
-237,-648,150,-55,-220,-120,466,71,25,-13
-101,-435,179,-62,-171,-22,442,84,67,8
-28,-161,123,-41,-65,82,307,36,70,39
13,87,-13,-17,27,126,134,-56,-16,38
9,353,-73,169,212,168,77,-103,-54,-6
-9,604,-162,277,62,51,-186,-83,-16,36
51,811,-251,237,-156,-216,-642,-246,-95,1
108,895,-72,418,9,-327,-700,-325,-190,-16
215,896,148,571,204,-182,-378,-62,-60,66
110,684,279,817,490,-69,-403,-106,-83,-52
-77,201,-73,1123,701,-70,-458,-205,-37,61
59,-247,-868,621,658,104,-127,44,259,431
212,-467,-1203,108,330,104,-366,47,249,406
129,-545,-483,158,86,-39,-377,-184,-64,-21
-202,-624,916,235,41,-169,37,-276,-356,-402
-173,-594,1044,-507,-306,-109,663,132,-98,-96
78,-418,371,-1144,-692,29,983,489,242,160
184,-209,262,-939,-628,45,649,380,230,134
207,3,330,-887,-594,17,427,251,199,258
137,167,109,-882,-562,-87,208,152,171,294
36,362,-55,-661,-281,-41,212,98,64,75
213,735,-66,-489,-98,84,335,147,150,196
505,1105,7,-115,-58,9,72,-32,44,414
282,938,-82,447,167,-113,-255,-138,-63,273
-144,381,-175,754,502,-45,-390,-270,-229,-271
-436,-26,-255,716,486,166,-196,-360,-418,-562
-644,-316,-265,527,178,153,149,-162,-221,-233
-561,-422,173,452,21,1,124,-18,-100,-192
-281,-475,459,95,-99,38,62,95,12,-221
-54,-614,395,-471,-210,70,146,251,163,-100
194,-757,120,-621,-160,122,378,383,211,78
345,-846,65,-565,-139,122,232,295,170,219
407,-836,-26,-642,-361,-8,81,195,156,313
526,-716,-187,-637,-492,-111,122,167,170,279
555,-619,-216,-365,-335,-198,-42,51,169,407
552,-423,-152,-58,-127,-224,-357,-97,225,873
275,-201,-84,128,-66,-211,-435,-158,200,701
-302,-26,-52,264,-44,-171,-382,-192,-31,-189
-648,232,-155,219,116,-8,-395,-251,-266,-592
-451,559,-327,72,205,69,-375,-57,-44,-85
-189,642,-491,-9,278,191,-307,92,144,122
-295,373,-561,113,361,320,-110,-25,-73,-262
-550,136,-32,300,296,341,201,-316,-577,-872
-451,57,611,173,204,303,383,-204,-459,-766
-202,144,677,245,371,205,198,-32,-129,-328
-171,-344,343,145,255,137,230,81,12,-169
-114,-599,107,-75,-73,33,198,117,47,-137
106,-584,143,0,-72,-112,-235,20,100,-61
307,-598,271,43,-71,-237,-564,-44,180,179
401,-441,221,-20,-134,-286,-660,-60,274,508
360,-329,95,24,-63,-260,-623,-135,172,373
75,-245,-27,260,13,-213,33,-26,-59,-6
31,-6,-156,571,241,-280,-29,-32,0,190
192,231,-446,849,761,-192,-579,-174,61,386
105,520,-740,791,909,182,-122,-54,-21,67
-445,621,-903,525,306,325,349,-92,-314,-581
-625,782,-787,99,-202,267,522,-50,-339,-578
-184,947,-87,-427,-463,33,234,87,-84,-73
197,1060,591,-522,-459,-105,-348,84,37,76
189,890,778,-714,-529,-141,-268,190,162,103
166,554,508,-644,-448,-1,403,321,215,112
37,118,175,-243,-188,138,848,272,27,-102
-95,-271,54,252,156,96,408,12,-136,-267
-19,-581,-539,314,74,-117,80,-97,13,-23
-264,-947,-871,204,-44,-357,-315,-307,-18,60
-438,-933,-349,678,396,-97,-326,-421,-199,-101
18,-564,317,387,215,243,134,-70,-18,55
150,-322,1067,31,-230,244,293,79,36,-104
101,-199,1015,-274,-340,209,579,126,10,-79
257,-11,336,-754,-293,233,613,214,179,365
265,289,15,-849,-281,167,310,154,186,381
110,625,21,-698,-148,208,151,98,38,-30
44,833,1,-489,15,248,134,120,79,-140
159,912,-128,-411,31,180,201,134,181,104
289,877,-294,-386,-40,-14,-72,25,195,379
393,740,-285,-322,-116,-114,-280,-91,80,398
384,513,-78,-98,-152,-164,-204,-106,-2,200
142,80,47,24,-169,-224,-232,-47,-11,-54
-59,-322,155,119,-145,-193,-217,26,40,-124
-110,-573,54,36,-68,-29,259,141,0,-265
-19,-729,-22,-25,77,80,386,194,19,-274
232,-827,20,-1,44,-53,26,74,107,83
202,-868,8,51,43,-62,2,-47,21,264
125,-806,-12,48,39,2,268,69,-39,144
0,-677,7,83,65,18,242,206,9,-17
-45,-466,42,162,167,68,47,163,-22,-95
86,-249,-62,135,183,61,15,79,-77,39
59,-28,-243,186,182,135,7,145,38,124
-54,161,-421,458,208,200,-255,81,103,-11
28,390,-542,602,293,94,-682,-240,-52,136
158,658,-405,366,280,-99,-981,-372,-157,69
-84,522,-99,241,114,-113,-849,-335,-225,-321
-769,1,393,561,136,42,1,-251,-396,-760
-789,-373,679,480,268,-16,248,-202,-359,-587
-537,-731,141,118,168,-134,74,-270,-282,-331
-514,-1124,-657,-70,205,203,409,-104,-186,-494
-277,-1236,-1100,-17,589,516,635,259,104,-306
77,-1136,-665,492,619,358,375,272,185,-8
121,-1121,751,-416,-722,-468,-556,-77,78,175
313,-807,955,-556,-716,-663,-891,-96,255,395
585,-374,876,-422,-455,-513,-796,-132,239,505
437,-130,586,-254,-104,-84,-56,-26,53,273
268,43,196,-320,-92,92,392,201,78,31
277,333,-110,-356,-254,-38,-58,120,93,3
158,636,-306,-256,-186,-77,-404,-125,-64,-83
88,909,-163,4,136,-42,-282,-186,-167,-183
87,970,161,242,242,-115,-141,-133,-157,-228
-111,766,185,455,-33,-267,-260,-189,-192,-334
-228,453,37,742,-128,-380,-585,-351,-267,-215
-189,141,-405,408,67,-72,68,-26,-63,108
-212,-96,-513,363,215,369,867,345,154,132
-487,-478,18,704,311,318,513,63,-66,-266
-372,-693,353,619,296,27,92,-116,-141,-300
48,-662,290,14,-73,18,143,63,79,17
291,-574,61,-663,-453,109,503,284,315,299
289,-559,-102,-937,-445,184,738,342,377,367
208,-534,1,-989,-416,185,736,343,370,407
169,-427,-96,-843,-323,162,624,350,320,378
136,-240,30,-486,-181,102,234,99,88,114
56,55,203,-194,15,84,-189,-138,-113,-88
24,381,266,-26,107,36,-526,-52,16,5
76,643,244,101,150,-71,-866,-57,133,135
-120,593,92,183,301,81,-699,-105,-21,-30
-363,374,-72,281,236,125,-220,-63,-210,-316
-454,81,-288,85,-6,200,550,43,-246,-434
-340,-217,-485,-158,2,382,924,161,-115,-249
-191,-509,-608,-210,-21,398,999,268,-35,-123
76,-701,-591,-380,-187,201,811,283,14,83
365,-720,-203,-118,-191,-96,303,95,51,390
109,-1004,-22,-32,-273,-209,69,27,58,232
7,-1208,-56,-256,-381,-240,-35,-58,72,142
228,-1016,45,-62,-235,-312,-149,-213,0,236
-30,-1023,33,189,130,-42,4,-253,-265,-159
-492,-1026,188,288,299,256,58,-180,-385,-609
-268,-658,114,129,275,165,-114,-141,-235,-526
361,-147,-84,20,174,-80,-467,-169,14,10
292,212,-64,60,173,-134,-769,-306,3,129
7,610,-45,236,231,26,-636,-269,-22,64
-91,1021,-41,451,164,140,9,-81,5,138
-15,1295,-135,647,141,193,280,23,80,176
60,1270,-652,435,219,212,182,251,344,361
30,1193,-615,653,407,-21,-173,190,261,73
-194,958,150,933,613,-277,-704,-99,-39,-437
-339,538,873,353,403,-571,-1210,-422,-286,-574
-148,229,789,-128,-7,-629,-1121,-405,-211,-323
234,151,-30,-301,-567,-484,-290,-22,28,8
337,63,-169,-156,-825,-439,90,64,70,169
139,-48,536,185,-559,-346,-21,-58,-66,62
78,18,1011,132,-211,-104,46,-46,-129,-107
171,222,497,-350,88,355,778,297,61,60
125,373,2,-765,38,568,1080,425,218,229
-72,488,-169,-927,-150,421,877,314,194,180
-80,742,-96,-429,20,206,608,172,132,191
45,1128,-76,-179,-24,-1,241,93,115,214
169,1444,-232,-363,-289,-90,25,68,60,161
188,1657,-90,-124,-152,-65,-154,-61,-39,179
-137,1487,144,282,124,21,-60,-44,-62,-236
-162,1077,9,138,93,-70,-55,-60,-52,8
5,677,-118,76,275,-17,8,64,118,340
156,374,-212,17,358,41,43,178,211,314
164,145,-166,-36,306,17,-47,1,-38,-13
-67,-201,-26,164,396,184,42,-91,-188,-309
-115,-574,-203,679,726,415,152,39,-15,-169
-237,-898,-749,1082,1013,418,-114,-108,-96,-183
-323,-966,-676,1236,679,-62,-741,-547,-418,-353
-131,-676,-32,618,131,-488,-1005,-550,-284,-209
81,-217,504,-245,-110,-357,-709,-167,74,52
137,55,270,-1175,-656,-51,221,207,179,207
69,328,393,-972,-778,16,711,254,77,62
90,648,611,-444,-681,-19,554,220,75,-15
149,792,463,-413,-714,-27,347,261,185,132
215,825,230,-501,-682,-182,-26,184,266,218
330,776,10,-518,-588,-278,-302,31,207,255
297,506,-125,-303,-347,-172,-247,-131,-52,132
48,16,-202,-178,-172,11,166,0,-98,-111
97,-388,-169,-164,-143,27,339,132,41,5
305,-644,-43,-120,-143,-69,304,172,151,301
236,-869,201,-24,-80,-118,53,131,178,346
100,-1079,296,65,1,-119,-131,37,100,214
-26,-1240,193,142,60,-86,-232,-49,-9,62
-116,-1296,-48,233,152,-100,-327,-24,4,-10
0,-1207,-404,291,324,-112,-474,12,76,0
85,-895,-375,601,400,-318,-1374,-438,65,344
-192,-761,-238,450,242,-253,-1071,-442,-66,164
-736,-652,-384,133,-50,-1,-158,-282,-328,-514
-912,-311,-100,234,-97,272,645,0,-352,-658
-563,153,381,101,-82,326,945,157,-242,-432
-231,375,487,-405,-104,350,1003,271,-76,-243
-181,252,-130,-516,119,447,1014,453,91,-218
-82,45,-726,-332,334,491,990,563,312,55
94,-102,-697,-35,273,371,618,367,299,248
27,-236,43,283,111,203,190,-21,-36,32
-114,-472,627,138,-98,76,-2,-198,-223,-179
40,-579,598,-213,-245,-102,-138,-244,-215,-55
364,-504,353,-390,-379,-357,-294,-258,-150,191
450,-423,108,-356,-454,-593,-459,-244,-105,122
330,-324,-21,-199,-391,-596,-460,-145,-16,7
-42,-314,45,-16,-122,-294,-255,-49,7,-23
-242,-201,-3,74,217,182,277,65,-17,-9
-107,74,-42,47,301,420,615,249,69,96
103,440,-86,-24,170,329,370,239,115,201
299,915,-82,-45,66,205,-20,159,165,304
270,1265,34,137,74,35,-418,-13,73,200
37,1278,-31,367,14,-316,-878,-131,125,251
-217,1063,-266,214,-156,-540,-975,-92,173,122
-507,764,-519,135,-102,-230,-477,-70,-6,-246
-638,578,-196,663,329,173,-118,-286,-386,-659
-612,301,-26,723,246,180,139,-367,-528,-838
-540,-36,-95,478,252,213,404,-278,-502,-724
-17,7,92,164,380,136,336,-166,-184,-87
450,128,118,-344,19,-60,8,0,228,389
416,-5,-9,-447,-130,-39,39,163,322,357
254,-138,-93,-361,-29,117,382,271,269,186
342,80,52,74,175,135,281,132,168,163
501,389,-32,64,190,55,-66,23,142,281
431,631,-31,-219,51,-91,-262,-7,171,346
404,858,65,-195,33,-203,-348,-101,113,360
227,985,125,89,293,-51,-68,20,120,197
-86,1007,91,204,379,110,210,150,70,-330
-115,1100,-97,-84,92,11,44,66,23,-520
38,1201,-226,-58,106,-40,-164,-68,3,-179
-54,1048,-402,67,70,-22,-319,-116,44,341
-197,791,-478,87,-114,-117,-486,-131,6,185
-213,494,-181,226,-96,-89,-390,47,-5,-201
-112,209,361,33,-122,-18,-146,144,-27,-286
-18,-60,790,-255,-241,-125,-73,25,-39,-262
67,-451,549,-351,-227,-83,-44,5,-89,-140
75,-886,139,-352,-220,6,178,5,-133,-100
38,-1146,20,-306,-222,80,508,-10,-144,-35
99,-1187,41,-216,-254,76,428,-28,-191,88
116,-1178,31,-233,-380,-26,216,4,-142,239
106,-1157,-47,-300,-464,-74,146,44,-24,327
9,-1091,-101,-223,-311,1,116,54,-23,176
-155,-909,7,-30,-47,88,53,-25,-136,-242
-206,-765,-34,-22,-61,-38,-174,-115,-10,-143
-307,-659,-179,-83,-120,-48,-58,-90,55,-103
-245,-459,-180,50,17,75,53,20,28,-309
-296,-495,-379,417,360,285,48,73,53,-446
-503,-706,-611,721,637,419,-82,-137,-94,-571
-430,-882,-474,938,811,298,-324,-304,-112,-388
-51,-1107,-302,611,901,265,-333,-138,129,6
180,-1351,-643,-73,540,239,11,92,208,74
327,-1390,-375,-64,56,67,-97,108,283,64
291,-1410,685,195,-289,-304,-692,-202,40,-39
410,-1458,1406,-104,-393,-496,-810,-192,95,132
578,-1450,894,-446,-247,-422,-654,-10,272,385
537,-1423,114,-500,-207,-237,-257,-15,117,260
391,-1361,-165,-243,-274,-120,646,66,-4,225
463,-1038,-137,28,-349,-58,1062,247,196,651
318,-618,198,-41,-328,-36,653,233,211,551
99,-193,539,-181,-210,-57,311,102,31,-33
-81,129,407,-184,-202,-100,166,46,-45,-120
-428,311,-37,-253,-174,38,252,191,151,65
-490,527,-102,-171,-116,87,256,212,185,-89
-418,570,4,63,-56,-3,113,98,20,-292
-391,465,38,180,39,57,41,4,-151,-424
-113,402,44,263,149,121,-130,-102,-205,-253
145,293,-66,55,84,70,-198,-113,-118,-8
146,26,15,107,31,46,-26,-29,-19,82
161,-149,87,178,30,-65,-137,-14,61,139
172,-293,-12,113,123,-119,-297,-45,27,14
165,-471,-139,379,414,5,-316,-39,37,26
151,-568,-129,523,447,97,-455,-13,63,60
-14,-596,-78,497,361,-122,-783,-164,-14,-105
-295,-551,140,838,546,-330,-812,-399,-210,-316
-312,-482,-165,95,169,-97,-183,-210,-171,-236
-164,-226,-354,-717,-405,85,555,87,-89,-10
-11,480,43,-711,-641,44,475,104,5,132
-216,657,-174,-310,-527,-12,496,76,-81,-30
-430,535,-391,121,-243,-4,408,-2,-169,-303
-505,299,-296,397,45,13,63,-127,-230,-354
-354,188,96,592,533,145,-126,-188,-249,-350
-225,-144,-98,690,884,361,155,-2,-25,-196
-174,-550,-463,435,513,180,132,11,16,-90
-216,-749,-277,149,157,-112,-200,-228,-206,-271
86,-631,420,-20,-122,-64,0,-69,-40,-131
493,-531,616,-577,-493,11,331,291,337,277
593,-592,344,-942,-516,-42,269,396,434,470
557,-566,278,-775,-341,-240,-151,218,311,410
502,-481,169,-540,-265,-337,-395,82,235,323
290,-401,109,-366,-220,-211,-203,-5,116,120
88,-317,59,-313,-271,-66,-139,-163,-166,-84
18,-181,-24,-317,-360,89,143,-121,-230,-27
-35,122,-49,-238,-269,185,624,117,17,27
-107,372,-130,-202,-187,110,487,202,121,6
-22,523,-133,-156,-183,-9,108,66,28,130
91,570,-40,-32,-143,-79,-121,-100,-152,124
-2,404,-40,35,-18,-45,-158,-74,-182,-82
5,59,-208,118,150,-6,-152,75,38,67
59,-371,-613,467,394,67,-142,144,202,326
-131,-842,-918,770,368,6,-162,27,135,315
-274,-1118,-800,678,108,-146,-247,-170,-73,36
-94,-1098,-63,478,22,-59,-114,-181,-197,-70
85,-1026,873,139,-125,-87,-40,-188,-261,-17
165,-941,792,-414,-196,-48,88,-28,-72,37
336,-789,333,-616,-141,41,-5,65,73,127
328,-673,202,-534,-159,43,-131,84,103,117
40,-582,120,-385,-192,16,-182,159,122,131
-148,-467,-57,-289,-204,7,-144,76,30,100
-241,-266,-94,-270,-226,56,126,-44,-227,-139
-176,127,29,-223,-259,-12,210,73,-114,-260
-434,366,-256,178,65,7,3,27,-121,-286
-516,196,-353,175,179,393,662,108,-217,-334
-535,69,-327,17,17,457,817,131,-228,-370
-310,18,-213,-161,-153,105,343,62,-135,-303
-69,-130,230,-45,26,-84,-61,-33,-38,-161
-71,-466,315,94,336,83,16,-22,-17,-123
-73,-785,-98,7,201,120,107,-22,-61,-140
-59,-959,-375,-97,112,78,24,-62,-66,-160
417,-625,132,117,-126,-145,-239,-80,136,205
344,-382,547,393,-109,-252,-326,-130,27,252
398,-91,548,82,-62,-171,-236,38,192,574
172,78,261,-112,-35,-15,-457,43,214,482
-60,325,57,-113,23,104,-775,-152,-23,17
-74,751,40,-45,53,77,-922,-252,-65,-90
-34,1182,37,12,34,72,-529,-236,-58,0
-1,1514,-12,5,-10,134,455,22,-100,-85
-24,1661,3,11,-61,145,1060,228,-20,-123
109,1777,107,40,-100,-54,340,164,73,51
140,1640,56,133,-34,-184,-241,34,1,27
110,1328,-28,411,95,-89,-436,-10,46,-24
38,974,-248,579,182,16,-514,-42,108,66
-401,480,-399,628,259,-5,-55,-159,-211,-287
-638,190,-5,564,-55,-134,300,-240,-486,-555
-333,118,139,109,-185,99,586,13,-242,-288
-15,128,-71,-28,226,233,492,82,-69,-73
217,270,-160,-119,254,201,390,127,19,69
280,294,-297,-592,-170,92,397,238,179,262
393,466,46,-528,-389,-225,86,89,159,477
439,732,322,-258,-376,-337,-48,46,160,494
306,892,159,-208,-277,-181,69,185,173,272
-9,979,-34,-219,-113,-75,151,266,178,43
-183,1121,-40,-211,-50,-94,20,132,102,-23
-47,1291,108,-132,-41,-158,-199,-46,-4,-136
0,1216,156,20,-5,-175,-311,-95,-51,-269
155,1011,119,184,102,-175,-350,-96,29,22
267,653,25,300,218,-76,-320,-187,-48,126
59,98,-136,175,11,35,-64,-195,-198,-106
-99,-333,-341,-150,-66,206,426,34,-127,-119
-73,-568,-485,-59,166,252,381,169,117,47
-38,-758,-264,395,251,79,-60,32,140,74
56,-871,159,551,175,-37,-316,-130,66,59
29,-889,314,633,177,-61,-318,-183,-52,2
-22,-883,6,759,240,-83,-97,-223,-177,-98
-3,-842,-230,525,237,-55,95,-149,-120,-25
-68,-738,-129,257,186,-97,-57,-85,-14,-4
-174,-443,187,64,281,-46,-191,-69,-7,-247
-233,-98,199,-232,126,7,-193,-85,-43,-177
-116,269,-4,-456,-103,6,-118,14,124,313
-95,666,311,-472,-279,-8,-219,52,122,202
-59,798,394,-498,-369,-9,-288,77,90,129
77,622,151,-473,-243,-20,-170,159,161,369
147,355,51,-504,-174,-20,-20,124,49,158
209,19,-85,-534,-256,6,273,90,-58,-36
52,-412,-182,-442,-323,-8,614,167,-21,-52
-87,-721,-47,-164,-192,-106,360,102,-42,-94
-99,-957,-68,55,145,-120,4,43,-2,-3
-109,-1174,-318,-27,491,166,208,96,35,11
-15,-1131,-423,-84,477,283,76,142,28,7
68,-950,-312,-88,108,30,-333,67,24,37
212,-789,-243,-232,-226,-164,-84,184,233,322
302,-555,-1,-270,-302,-260,-82,40,318,555
34,-363,-40,-349,-404,-204,-104,-241,-17,195
-311,-89,-138,-156,-339,105,428,-78,-175,-339
-399,340,-2,251,62,331,334,36,-61,-527
-89,799,25,324,249,232,-78,-63,-29,-168
159,1148,265,392,252,55,-335,-230,-141,-33
-63,1058,253,564,244,37,-61,-180,-254,-239
-372,692,-284,508,282,75,75,-114,-239,-322
-487,286,-777,495,585,334,255,-34,-81,-378
-250,21,-513,524,668,536,401,149,119,-148
-142,-49,502,399,382,170,182,-90,-163,-338
-217,-159,986,413,239,-238,-82,-313,-414,-521
34,-281,604,-34,-133,-242,153,144,106,12
324,-392,268,-409,-453,-90,281,423,426,376
501,-385,76,-461,-429,-148,-87,309,446,574
710,-176,263,-144,-386,-408,-629,-23,251,584
485,-151,362,147,-128,-281,-738,-353,-198,79
165,-157,35,-265,-57,94,-112,-248,-288,-163
408,255,0,-506,-161,130,501,2,-102,55
459,637,-125,-474,-232,0,547,101,38,381
153,796,-406,-363,-170,-83,116,53,131,522
-264,926,-355,-43,106,102,32,91,57,79
-534,1027,-51,92,195,279,201,72,-174,-431
-470,961,-154,-205,4,143,200,50,-183,-405
-394,696,-185,-6,82,-31,91,67,-41,-265
-179,358,45,308,105,-178,-77,104,49,-146
-56,45,81,210,-20,-251,-303,67,-4,-141
-95,-294,-97,-12,-251,-358,-569,-33,-40,-181
-118,-625,-334,361,-142,-429,-805,-168,-115,-94
-144,-823,-416,1357,326,-361,-966,-345,-208,-4
-501,-1045,-521,1729,330,-228,-1005,-651,-492,-393
-1124,-1369,-342,1184,426,414,22,-652,-857,-1159
-881,-1250,-97,4,572,959,1351,46,-396,-858
-168,-901,-551,-1171,602,1201,1868,691,364,46
232,-505,-401,-1482,216,970,1331,613,501,349
325,-134,508,-1016,-315,257,345,129,189,183
643,393,823,-846,-521,-220,-89,-3,179,377
672,838,916,-523,-350,-248,-112,-31,95,293
484,938,761,-236,-145,-165,-7,-20,12,117
430,847,560,-161,-143,-283,-136,-64,8,152
400,658,343,-199,-181,-335,-213,-60,95,332
290,387,185,-233,-233,-302,-131,66,219,424
161,48,163,-124,-241,-284,-107,105,221,399
207,-232,75,-79,-189,-219,-73,114,218,433
229,-468,-82,-16,0,-38,26,154,214,311
406,-634,-252,109,169,9,-18,145,331,472
569,-740,-444,59,132,-135,-214,62,409,654
535,-572,-231,81,53,-257,-494,-225,64,330
-103,-663,-51,171,177,-50,-296,-155,-139,-175
-654,-821,-343,162,403,231,24,57,-99,-532
-659,-676,-607,335,653,391,169,140,-21,-365
-499,-361,-260,932,657,405,264,168,-39,-269
-498,-33,444,1239,440,152,-25,-111,-254,-472
-658,185,502,699,407,-47,-309,-321,-424,-662
-337,569,289,82,253,-18,-247,-170,-251,-466
146,905,344,-503,-332,-44,-145,49,57,-28
431,920,350,-943,-683,-106,-26,161,198,257
380,700,200,-861,-495,-152,-111,130,165,209
202,266,113,-469,-272,-183,-299,66,152,76
339,-185,-23,-342,-294,-268,-288,26,264,572
407,-585,-107,-334,-368,-260,-90,-75,149,643
240,-950,-99,-262,-294,-23,321,57,6,213
-42,-1341,-109,-151,-132,153,433,162,48,115
-251,-1642,-170,-49,48,175,292,81,7,-89
-367,-1770,-200,72,173,175,386,126,6,-238
-272,-1646,-45,284,133,9,172,-2,-127,-218
-128,-1405,239,456,0,-127,-192,-239,-341,-333
-212,-1156,186,445,-87,-135,-333,-298,-468,-555
-265,-999,-413,98,-170,-104,-227,-78,-167,-266
-281,-812,-821,1,10,61,45,79,70,-89
-248,-557,-677,370,560,278,264,15,-58,-205
-120,-193,-119,651,898,413,218,26,-77,-141
17,143,214,318,790,208,-112,-63,3,-22
144,297,416,216,733,-16,-428,-79,177,191
86,170,406,-284,52,-257,-617,-86,228,175
176,-98,366,-511,-492,-401,-589,-95,171,238
402,-269,473,-91,-405,-379,-868,-146,127,365
274,-556,144,23,-215,-203,-974,-215,1,50
-145,-948,-428,32,15,82,-346,-132,-47,-298
-267,-1223,-733,8,-24,275,812,76,-40,-215
-159,-1242,-336,317,-6,275,1076,167,-41,-57
-202,-1093,43,509,77,70,361,51,-146,-206
-339,-860,318,520,180,-76,-94,-165,-341,-444
-71,-433,225,659,503,121,-6,-103,-188,-209
84,-116,-50,394,368,256,616,132,-20,-8
100,175,227,0,-89,155,687,180,20,52
224,651,420,-563,-371,4,207,112,82,233
386,1074,21,-817,-352,-85,19,230,273,546
390,1285,-179,-672,-346,-237,-58,301,401,675
356,1259,-323,-660,-388,-319,-137,234,339,599
219,1038,-455,-679,-332,-177,-199,101,220,402
198,837,-277,-415,-176,-49,-95,-61,6,208
164,534,99,-276,-9,77,294,28,-131,19
17,158,200,-69,191,183,221,115,-143,-201
-281,-344,-45,-177,48,189,201,182,52,-356
-418,-764,-135,55,223,35,121,72,133,-100
-246,-863,-112,457,400,-91,-100,-156,0,48
-72,-914,-503,443,398,217,73,-47,127,204
-106,-1018,-950,405,238,366,101,-89,-68,-104
-264,-851,-241,687,-22,236,176,-256,-452,-612
-264,-396,595,592,-17,138,320,-243,-472,-591
-114,113,823,332,135,0,168,-201,-266,-285
192,595,764,-240,-81,-126,-166,-88,27,82
411,979,486,-881,-429,-117,-216,27,187,354
264,1212,155,-753,-284,40,-138,46,111,176
78,1347,192,-291,-64,43,-34,35,13,-48
-33,1333,292,-23,-36,-8,223,46,-77,-200
-73,1176,234,32,46,8,112,39,-68,-148
-172,814,-10,308,382,90,-49,0,-84,-167
-193,451,-418,547,604,209,-4,42,-23,-89
-147,249,-636,391,376,124,-45,72,57,-8
-202,155,-189,500,57,-43,-135,0,4,-102
-232,115,503,400,-193,-162,-40,-80,-69,-178
-40,120,318,-283,-151,-118,-69,19,73,32
157,245,-164,-638,-60,-17,-148,119,223,238
186,422,-329,-610,-256,-80,-143,104,198,250
302,653,-280,-556,-486,-191,13,177,249,375
277,909,55,-328,-437,-215,85,154,204,377
239,1142,263,-102,-218,-133,159,45,55,250
327,1390,200,-23,-91,-43,32,0,16,231
154,1622,40,-80,-33,-3,-49,-27,-36,54
-15,1783,-141,-164,-78,-49,-3,-53,-101,-38
79,1711,-197,-174,-139,-116,-75,-50,51,262
-20,1469,-176,-125,-113,-64,-97,0,44,166
-248,1172,-72,-29,-126,19,37,90,-91,-239
-428,691,-197,-119,-286,19,-10,105,-157,-424
-474,227,-390,-247,-333,94,189,80,-259,-549
-609,-228,-569,-107,-83,288,577,37,-376,-642
-586,-506,-532,435,267,374,434,-176,-398,-522
-526,-718,-380,983,524,261,113,-368,-464,-505
-372,-796,-193,1281,641,61,-69,-283,-276,-303
-122,-578,127,1436,603,68,-197,-188,-21,-66
-17,-310,556,1107,591,84,-453,-336,-79,-76
312,180,738,298,627,114,-595,-324,9,108
702,674,437,-631,445,148,-587,-116,247,429
836,1012,219,-807,232,-4,-625,-35,326,597
737,1342,176,-708,-65,-178,-307,69,301,530
589,1632,117,-660,-422,-278,136,173,272,409
524,1810,236,-533,-557,-339,523,214,226,385
506,1795,279,-401,-465,-409,183,112,211,528
327,1588,122,-315,-313,-342,-100,81,196,323
26,1292,77,-171,-180,-216,-158,101,155,-8
-268,822,-13,-71,-76,-120,-236,24,71,-91
-151,526,-19,50,8,-143,-313,-96,-17,-14
-45,370,-111,64,35,-147,-183,-57,5,15
