6,-1232,17,7,24,-7,34,-1,-40,-35
-19,-559,3,2,14,-4,22,-10,-27,-66
-24,159,13,-1,15,-3,10,-14,-37,-78
-19,962,16,5,20,0,31,-11,-33,-79
-16,1812,19,15,20,13,47,-16,-43,-75
-12,2453,18,14,24,9,35,-20,-45,-59
-15,2567,-3,-2,13,-12,14,-2,-48,-27
-3,2299,-10,-9,3,-7,-8,0,-10,-16
0,1754,0,-20,-4,-9,-2,1,33,-7
-12,812,7,-8,-5,-15,31,1,47,-12
-8,-190,3,2,11,1,38,-7,12,-23
6,-1074,20,17,24,16,41,-20,-46,-39
28,-1851,41,29,32,14,24,-20,-59,-20
64,-2498,34,22,16,14,-1,-26,-55,4
87,-3069,21,-5,12,-17,-19,-55,-54,-7
47,-3935,13,-12,11,-33,-20,-58,-17,-9
10,-3996,9,-6,9,-18,-38,-27,-19,-7
-44,-3323,-2,-5,-1,-16,-43,20,15,-8
-75,-2484,-48,-11,-5,-8,-34,73,37,-1
-79,-1600,-88,-14,16,6,-44,141,52,14
-88,-608,-82,0,35,30,-14,135,32,12
-99,346,-55,16,44,45,10,74,-17,-17
-81,988,-26,28,38,38,0,-3,-24,-22
-62,1095,-38,36,30,38,-24,-54,-38,-6
-40,953,15,26,25,39,-54,-66,-53,-1
-39,472,20,27,14,32,-51,-58,-98,15
-23,-310,15,19,3,20,-14,-43,-110,52
8,-1037,22,17,10,6,15,-36,-81,79
33,-1650,15,9,2,-13,6,-26,-16,88
44,-2182,5,9,-11,-30,-2,22,84,83
52,-2583,10,13,-10,-24,-5,8,100,71
58,-2566,-49,18,-1,-9,-2,-26,83,54
43,-2240,-36,16,12,-3,-23,-45,45,21
16,-1715,36,22,14,4,-20,-58,42,-4
12,-942,25,9,-4,0,7,-57,66,11
11,-82,2,-3,-5,4,-23,-50,54,11
-16,847,6,-7,-12,0,-52,-19,40,4
-37,1854,11,0,-24,-3,-52,30,26,-4
-50,2725,-5,6,-23,11,-30,93,15,-2
-56,3144,-18,-10,-14,10,-8,138,17,9
-58,3103,-11,0,0,17,5,112,-31,15
-28,2782,-14,7,-6,16,-6,60,-22,27
10,2060,-12,4,-25,8,-23,12,-17,52
22,1176,4,13,-18,4,-33,-22,-6,67
39,361,2,10,-6,4,-21,-33,10,80
55,-359,5,8,-7,-8,5,-13,20,74
33,-961,10,0,-7,-8,-2,4,-9,44
2,-1311,21,6,4,0,0,4,-6,23
-1,-1282,28,14,11,-2,5,3,36,21
9,-1032,20,1,-7,-10,-9,-4,11,28
12,-536,3,-5,-14,-11,-18,-16,-21,28
14,161,16,13,0,-15,-29,-36,-61,1
0,885,12,12,3,-5,-40,-32,-70,-12
-36,1725,-1,-5,-1,8,-27,-17,-41,-39
-76,2595,-2,-5,3,22,13,0,-23,-70
-75,3245,-6,1,8,22,9,7,-4,-76
-48,3399,3,0,3,18,-7,0,-35,-59
-40,3163,14,-3,5,10,-14,-11,-30,-33
-29,2655,13,-5,6,7,-13,-15,-46,-16
-5,1825,18,0,8,5,-26,-28,-62,-7
15,989,20,-6,7,15,-16,-37,-53,-6
8,260,17,-2,19,20,5,-35,-39,-22
-5,-363,14,5,13,7,10,-9,-7,-34
1,-863,7,-7,9,8,22,22,54,-37
13,-1040,-2,-9,15,11,43,51,88,-35
22,-848,-45,-16,8,9,44,56,62,-24
55,-451,-48,5,9,2,5,24,18,-27
57,187,26,14,8,-5,-11,18,30,-19
46,976,28,1,-5,-10,-13,31,54,0
18,1804,9,4,-17,-10,-8,26,41,3
2,2709,3,8,-27,1,18,5,-5,-6
3,3450,9,12,-21,20,17,-18,-14,-12
-13,3804,11,17,-3,27,-9,-15,-22,-13
-10,3704,14,2,4,24,-11,-5,-20,-9
-2,3366,7,5,4,14,0,7,9,-12
4,2667,9,22,13,8,5,9,-14,-3
-1,1673,13,11,19,1,12,12,1,26
2,704,16,3,23,0,18,20,14,61
10,-154,33,-5,30,-1,19,26,-21,63
29,-853,32,-6,31,-6,24,9,-10,67
40,-1365,13,0,6,-6,34,-4,-38,101
41,-1504,-15,0,10,-11,48,-17,-41,110
36,-1399,-93,-16,21,-10,18,-24,-61,82
8,-1092,-46,-27,10,-23,-6,-19,-65,42
-4,-481,10,-16,8,-17,24,-31,-55,3
-14,195,12,3,13,0,6,-29,-31,-44
-46,974,9,15,17,19,-4,-22,-52,-73
-78,1829,7,15,18,25,-9,-25,-62,-71
-72,2513,5,5,9,16,-10,-19,-55,-57
-58,2730,2,-3,-5,18,-21,-24,-87,-54
-50,2529,-11,-15,-21,2,-31,-4,-58,-42
-53,2062,-19,-28,-25,-20,-37,28,32,-13
-28,1200,-4,-12,-12,-20,-36,9,20,45
4,182,0,-11,-12,-31,-35,33,59,82
51,-702,0,-16,-13,-54,-27,74,98,111
76,-1487,32,-5,4,-57,-14,22,44,112
59,-2184,47,19,29,-41,-24,-16,23,70
38,-2611,37,9,12,-45,-10,2,72,32
21,-2640,20,0,1,-47,10,38,157,3
12,-2445,-10,10,0,-29,30,78,107,0
0,-1960,-118,4,9,-1,38,85,98,2
-5,-1294,-76,-4,22,11,23,52,101,-7
5,-561,7,1,8,19,-6,19,36,14
32,335,-23,-6,-2,11,-22,-2,15,29
33,1229,-72,-20,-12,5,-28,-7,21,39
-15,1826,-32,-26,-18,12,-23,-21,4,25
-53,1919,-29,-26,-34,-4,-16,-32,-8,-1
-44,1704,-77,-39,-39,-18,-31,-32,5,-12
-33,1160,-58,-36,-38,-10,-36,-9,26,1
-14,352,-6,-29,-18,-9,-11,45,47,31
1,-451,-4,-22,-12,1,20,131,52,63
3,-1175,-46,-11,-8,0,39,148,45,56
6,-1786,-58,-10,-13,-12,32,83,13,45
-21,-2289,20,2,-9,-8,13,26,5,27
-21,-2378,44,12,0,-4,-10,-23,6,26
7,-2119,34,19,21,4,-2,-51,-24,50
16,-1682,0,12,26,12,7,-46,-15,28
5,-966,22,15,28,15,10,-34,-25,0
1,-169,31,10,24,9,5,-35,-63,-9
-2,1659,-37,5,7,15,-2,-61,-86,-41
-13,2408,6,13,-7,9,0,-43,-59,-50
-9,2911,-4,0,-34,0,-4,-33,-42,-50
-14,2930,-6,-7,-32,-8,-11,-50,-44,-30
-16,2649,-12,-18,-17,-18,-2,-61,34,-18
-17,2055,-34,-19,-20,-9,15,-57,48,-15
-17,1228,-30,-21,-26,-10,22,-49,6,1
-9,477,-4,-26,-30,-31,10,-37,-30,19
4,-173,19,-6,-27,-37,6,-16,-15,20
4,-764,-24,4,-13,-25,18,42,16,26
-13,-1175,-7,0,-7,-22,45,110,1,30
-6,-1207,35,0,0,-9,52,129,-8,30
6,-1024,25,-2,-1,7,48,71,-8,45
3,-533,25,3,5,15,65,-10,-38,25
0,250,23,17,13,11,42,-82,-25,3
5,1084,18,23,4,2,9,-106,-57,4
0,1983,18,23,0,-2,2,-84,-52,-6
-12,2899,7,18,-12,6,-2,-51,-15,-20
-21,3548,-57,0,-25,15,-12,-29,9,-27
-6,3675,-58,-7,-20,24,-14,-21,-15,-14
1,3404,-5,0,0,26,-11,-40,9,-9
-14,2837,4,0,10,20,-27,-57,6,-30
-16,1916,2,-4,-6,25,-19,-49,-26,-20
5,947,-47,0,-18,13,-24,-43,-32,-22
12,74,-62,7,-26,-4,-19,-33,-41,-29
29,-697,17,1,-20,-12,-4,-27,-35,-16
49,-1297,29,-15,-10,-9,-2,-14,1,4
49,-1585,25,-21,-11,-19,6,11,34,10
24,-1534,20,-22,-11,-14,35,36,60,2
5,-1250,2,-31,-19,0,53,66,118,-7
-1,-669,-5,-19,-13,2,51,63,128,-20
-10,92,-8,-17,-1,4,43,45,105,-26
-19,866,-10,-13,0,10,24,14,46,-19
-33,1778,-81,-2,2,12,22,5,27,-19
-41,2699,-45,6,13,18,2,4,-4,-24
-44,3254,20,6,17,29,-4,-2,-30,-27
-42,3309,29,4,14,28,10,-4,-20,-29
-18,3028,28,0,2,18,19,-5,-38,-34
4,2424,30,0,4,13,18,-3,-23,-17
18,1512,27,-5,8,1,-4,10,5,0
17,597,0,-12,12,12,-22,23,30,9
17,-234,-5,2,8,18,0,29,43,18
19,-1006,25,4,7,10,35,35,29,7
19,-1603,17,8,1,-1,35,26,23,-5
19,-1805,-15,0,8,-3,30,23,21,6
26,-1705,-65,-7,8,-13,19,19,-5,11
48,-1394,9,-10,-1,-15,19,13,-14,9
40,-142,44,-4,1,-9,-9,-13,9,23
8,627,32,4,7,-11,-21,-21,-21,24
-9,1544,6,-4,5,-11,-17,-31,-17,18
-18,2332,-47,-10,0,-8,-24,-56,-12,-11
-34,2663,-70,-8,-6,0,-52,-62,-60,-41
-18,2539,-23,7,-7,2,-59,-69,-86,-45
-20,2161,-73,8,-9,2,-53,-75,-91,-52
-54,1465,-144,-1,-5,1,-37,-61,-107,-52
-63,549,-113,-6,-2,2,-19,-30,-66,-43
-27,-311,-91,-12,1,0,9,15,-2,4
4,-1094,-10,-15,-7,-17,27,40,55,46
29,-1747,-31,-11,-15,-21,31,59,120,62
42,-2149,33,-17,-24,-26,22,53,158,73
36,-2162,40,-6,-22,-12,11,36,135,48
17,-1928,37,4,-4,16,10,4,51,4
-5,-1469,57,3,-2,18,-3,-42,-17,-10
-21,-789,42,-4,2,-3,-26,-57,-57,-8
0,-80,41,-7,6,-12,-41,-63,-76,-12
8,693,31,-1,10,-7,-22,-41,-68,-18
10,1453,12,-4,6,0,-2,22,-61,3
3,2065,7,-10,1,0,-8,97,-7,44
-10,2168,-16,-19,4,1,-2,128,42,82
-22,1903,-60,-25,0,0,12,63,19,57
-46,1353,12,-1,8,6,14,-5,-18,7
10,428,-8,-1,12,1,6,-38,-16,14
30,-533,-110,-4,5,-13,-5,-52,-3,38
26,-1398,-119,-6,20,-12,-3,-30,35,33
31,-2154,-108,8,18,-13,28,34,101,48
38,-2799,-28,16,13,-13,39,41,49,51
9,-3090,74,14,19,-7,46,16,0,0
14,-2998,101,11,15,-22,34,26,23,-43
39,-2708,111,-6,12,-22,22,36,40,-46
-15,-2119,58,-7,17,-6,6,14,11,-59
-63,-1413,-43,20,28,2,-35,-30,-39,-82
-68,-629,-76,-8,14,-4,-48,-15,23,-28
-72,285,-10,-57,-5,-1,-41,23,123,21
-55,1101,-3,-62,-5,18,-29,34,104,-8
-19,1582,22,-33,-6,6,-37,-7,66,-22
6,1577,78,-3,7,-6,-57,-32,63,-15
-20,1204,71,15,14,15,-31,-2,31,12
-28,500,62,28,31,23,1,14,9,16
3,-428,47,13,20,21,37,3,-6,34
2,-1312,15,16,12,27,55,-4,-5,40
-1,-2118,55,28,17,14,56,-3,-4,27
13,-2906,71,22,2,0,48,-4,-4,14
39,-3494,65,9,-4,-7,44,8,16,17
40,-3521,48,-6,5,-27,30,25,19,18
13,-3267,0,-9,0,-28,20,33,26,13
2,-2902,-80,-13,-11,-20,29,27,18,0
-2,-2139,-2,-16,-2,-27,19,17,-2,-2
-3,-1295,46,-7,3,-20,-2,-2,-24,0
14,-476,32,-3,14,-3,2,-17,-42,4
24,500,14,-1,13,7,16,-19,-72,4
-1,1291,22,0,5,5,4,-22,-59,6
-12,1568,28,-8,7,4,-26,-23,-68,7
-34,1452,19,-15,-9,6,-34,-26,-61,-13
-21,1096,8,-12,-7,7,-22,-15,-62,-33
27,325,13,-6,-2,-4,-27,-10,-33,16
74,-567,13,-9,-9,-25,-20,-11,-38,78
106,-1306,-24,-24,-20,-41,-2,10,-3,123
119,-1999,-95,-20,-24,-43,8,15,25,171
97,-2607,-35,-9,-34,-53,24,9,38,172
49,-2863,-46,4,-34,-32,43,0,31,136
-5,-2741,-98,19,-7,-17,51,-21,8,37
-79,-2385,-4,21,10,-11,30,-31,-6,-112
-98,-1750,39,19,12,-3,34,-20,-57,-215
-50,-913,18,20,21,10,49,36,-38,-186
-27,-87,2,9,29,36,65,106,-4,-123
-26,880,-29,-2,30,40,62,167,-21,-54
-36,1833,-27,-3,32,42,32,150,-8,-5
-47,2511,-3,8,33,42,10,53,-31,-48
-34,2726,9,26,36,34,-12,-23,-40,-64
-21,2634,26,44,37,27,-32,-81,-11,-44
-30,2261,17,54,41,30,-15,-97,2,-33
-24,1575,14,45,48,39,7,-78,-28,-40
16,852,39,33,37,29,4,-47,-18,-17
56,183,4,36,13,8,-11,-9,25,37
57,-350,-28,41,7,-2,-17,-11,16,49
50,-755,1,25,6,-20,-21,-11,-16,38
43,-832,-20,14,4,-36,-7,0,7,29
37,-521,-33,9,9,-32,5,6,15,34
26,-99,-35,20,0,-20,22,19,25,31
4,602,36,23,0,-15,39,10,34,8
-14,1436,35,16,0,2,28,1,20,-4
2,2314,23,-3,2,15,17,4,-36,8
1,3297,21,-9,1,15,0,-9,-79,8
-23,4129,25,-10,-10,18,-34,-32,-101,-20
-25,4508,12,-5,-9,20,-35,-40,-85,-32
-20,4357,7,-14,-20,-2,-43,-26,24,-21
-11,4049,4,-17,-36,-8,-51,-6,64,-1
10,3359,-63,-12,-37,0,-45,19,71,14
28,2426,-55,-14,-25,4,-48,25,56,38
38,1536,22,-23,-14,-10,-64,-5,29,35
48,731,15,-29,-21,-30,-50,-22,24,27
81,-4,-1,-25,-32,-38,-45,-12,33,56
97,-568,33,-25,-23,-39,-42,-6,28,97
85,-802,25,-29,-4,-29,-39,2,21,116
61,-800,33,-18,2,-17,-40,1,36,98
13,-557,31,-15,2,-5,-40,10,30,53
-33,-69,32,5,21,11,-34,-12,4,-4
-44,466,11,7,29,21,-14,-29,33,-35
-22,1145,-3,-4,11,17,-9,-28,45,-43
-9,1875,-3,-1,14,20,-18,-31,13,-63
-24,2427,-10,-5,8,17,-2,-40,-20,-56
-53,2497,-15,-9,-2,12,-13,-42,-59,-51
-90,2159,7,9,6,16,-35,-34,-25,-60
-81,1579,5,3,3,16,-36,3,18,-43
-37,630,-6,-1,-6,13,-27,27,20,-10
-7,-413,-25,9,-3,1,2,63,28,-3
4,-1339,7,23,-6,-18,28,123,16,0
-6,-2135,19,9,-3,-14,25,155,11,11
-11,-2779,10,0,9,-21,43,129,20,24
12,-3140,6,12,18,-27,64,64,29,22
35,-3087,20,7,13,-20,67,-6,22,35
58,-2805,34,0,19,-19,37,-44,13,37
44,-2280,19,0,17,-29,1,-48,9,16
-17,-1572,-11,-18,6,-18,-8,-5,20,-4
-48,-831,-22,-20,-2,-3,-10,10,19,-28
-68,45,-25,-13,0,-6,-15,-6,-15,-43
-90,907,-28,-22,-3,-21,-16,-7,-50,-53
-86,1471,-21,-17,4,-2,-5,-9,-40,-53
-71,1517,-4,-4,15,3,-5,-16,-49,-38
-49,1261,10,-4,18,4,13,-26,-66,-36
-24,719,6,-11,16,6,31,-10,-19,-20
-2,-152,4,-6,8,3,53,14,24,0
15,-1033,22,11,9,10,56,21,29,6
21,-1809,21,7,7,-9,47,1,34,22
27,-2480,5,-11,-3,-29,20,0,24,28
22,-3005,-2,-4,-10,-21,-1,9,17,10
19,-3131,21,0,-18,-13,-5,6,6,12
21,-2949,15,3,-28,-17,0,-7,-55,-7
19,-2550,-39,9,-12,-4,24,-18,-72,-18
6,-1875,1,7,12,2,31,-25,-87,-23
-15,-1162,12,10,10,-2,27,-24,-101,-20
-21,-424,4,-5,-3,-17,1,-34,-130,-17
-45,409,-1,-1,-4,-12,-14,-59,-137,-17
-57,1168,-2,-4,-8,-15,-45,-62,-80,-3
-40,1490,-12,-22,-24,-26,-90,-28,40,25
-21,1372,-14,-28,-16,-16,-92,-15,87,36
-1,983,-18,-22,7,-8,-77,-20,52,32
30,194,-36,-24,12,-3,-47,-20,33,51
41,-775,-6,-19,24,12,-20,8,31,88
18,-1642,6,-19,41,21,-2,32,37,75
34,-2426,0,-22,44,20,8,39,36,64
54,-3070,18,-18,34,16,11,44,67,66
49,-3452,26,-8,23,5,7,52,128,47
23,-3466,0,-19,13,-7,15,67,134,33
25,-3222,9,-8,5,-8,19,51,108,39
50,-2713,39,11,2,-9,23,22,44,29
39,-1987,-42,-2,0,-8,42,20,16,-1
12,-1237,-84,-14,-6,-11,14,15,4,-19
-9,-339,0,-28,-26,-7,-14,6,-13,-13
-21,599,15,-39,-31,-1,-13,1,-10,-35
-54,1287,-3,-22,-20,1,-18,4,-18,-54
-56,1503,-71,-7,-13,11,-20,9,-69,-32
-38,1278,-75,-1,-9,10,12,6,-51,-3
-23,682,26,16,-1,15,38,-1,-51,3
-34,-156,48,19,11,18,27,-7,-47,6
-35,-1022,50,5,13,11,8,-1,-25,0
0,-1650,22,8,8,-4,13,-12,-28,10
31,-2120,10,15,8,-6,32,-18,-13,16
35,-2637,45,-2,2,-17,31,-16,-7,22
28,-2743,13,-10,-12,-31,34,-5,0,16
14,-2524,4,-23,-38,-54,14,-11,-34,-13
16,-2049,19,-21,-52,-70,-17,-44,-51,-41
11,-1299,-4,-34,-56,-57,-12,-51,-66,-31
11,-431,-19,-31,-47,-43,-9,-36,-26,-4
4,488,-23,-28,-48,-30,-11,-21,-18,15
-16,1502,-69,-32,-49,-10,-21,-15,-29,5
-3,2455,-84,-20,-21,0,-35,6,-39,-52
-43,3026,-61,32,33,41,-3,34,9,-137
-80,3087,20,67,73,72,31,64,50,-133
-47,2920,42,62,57,58,25,65,51,-81
-4,2381,32,40,23,38,13,44,39,-14
13,1534,20,16,18,25,12,33,35,8
3,762,29,18,31,26,24,35,22,-24
-17,81,42,35,45,31,24,20,19,-45
-3,-462,44,15,53,22,14,4,14,-31
18,-822,26,11,38,13,5,-12,2,-23
17,-785,4,2,27,-4,0,-16,-16,-40
25,-464,-4,-8,19,-19,2,-5,-15,-31
60,80,-19,-6,2,-16,15,-27,-3,-2
68,903,-68,-16,-9,-17,11,-47,-17,-6
79,1778,-26,-27,-19,-36,-16,-44,-47,-7
68,2732,-9,-27,-12,-20,-21,-29,-46,-34
22,3755,-22,-13,-8,-9,-24,7,-93,-46
-43,4610,-27,4,0,2,-41,45,-124,-19
-57,4977,-53,8,4,20,-36,74,-109,-4
-27,4907,-13,21,10,25,-33,28,-106,-16
21,4540,17,28,0,19,-21,-49,-102,6
58,3810,1,15,-23,5,0,-104,-91,41
83,2913,-10,-13,-48,-26,-6,-105,-24,69
95,2076,-24,-24,-45,-34,-4,-68,37,35
79,1260,0,-8,-27,-18,9,-23,49,-2
47,549,-26,6,-7,-9,16,20,6,-20
23,159,-14,24,6,7,31,44,25,-46
23,174,32,30,12,28,42,95,88,-56
-3,391,30,14,13,41,48,170,97,-57
-44,866,36,28,14,61,38,175,74,-66
-56,1540,38,30,20,59,0,82,24,-57
-31,2251,44,30,25,46,-27,-12,9,-8
-34,3059,55,30,18,54,-37,-43,12,18
-81,3839,43,13,0,47,-36,-40,-15,17
-110,4345,-27,-18,-13,16,-28,-25,6,87
-103,4330,-28,-19,-22,-8,-31,-24,25,140
-82,3942,34,-11,-14,-16,-26,-19,29,126
-43,3326,41,-13,-12,-6,-7,-21,-2,142
13,2377,54,6,-11,-10,6,-21,9,142
34,1419,65,30,0,4,12,-24,0,86
73,596,69,12,6,9,17,-17,-35,10
110,-158,74,10,1,1,-5,1,-3,-68
79,-798,69,25,1,7,-23,0,14,-130
43,-1058,14,31,15,11,-16,-21,-20,-117
16,-1036,19,23,9,-10,-9,-33,7,-79
-11,-808,24,0,-28,-26,-30,-42,16,-21
-32,-312,5,2,-40,-20,-47,-43,-24,45
-42,242,3,18,-20,-1,-37,-57,-44,83
-43,950,-3,11,-18,11,-39,-60,-39,100
-55,1920,-27,-4,-22,14,-47,-36,2,56
-42,2685,23,46,9,30,-27,-48,-33,-88
-30,2991,58,64,29,41,-24,-51,-48,-199
-27,2861,14,24,9,31,-36,-35,-59,-161
-23,2453,-26,1,-8,19,-13,-23,-37,-94
-29,1772,-34,-10,-9,22,29,1,3,-79
-19,827,-6,-1,-1,21,43,22,15,-60
12,-122,5,-4,0,12,46,51,47,-8
22,-1043,1,-1,10,14,57,74,65,28
22,-1863,-17,0,20,16,52,74,53,26
36,-2322,14,-19,11,13,50,75,52,38
27,-2151,14,-23,12,9,56,62,50,41
-1,-1676,16,-11,1,3,26,25,31,22
1,-1127,26,-6,-3,-31,-24,12,39,53
22,491,14,-5,-3,-43,-54,13,56,110
18,2385,-12,0,-6,-35,-52,18,57,181
-2,2960,-42,-13,-15,-33,-25,23,53,204
76,4545,-23,5,-27,-12,-41,-30,-7,96
51,4689,54,29,-26,11,-42,-70,-80,-130
22,3477,93,26,-34,24,-21,-82,-70,-170
-41,1696,71,13,-32,68,15,-59,-36,-74
-126,557,30,-27,-37,97,9,-64,-24,-19
-177,-322,-6,-60,-24,95,-23,-86,-54,74
-166,-1186,-20,-54,0,85,-32,-84,-54,202
-106,-1772,-50,-24,19,76,-34,-41,4,311
-77,-2480,-114,-30,16,26,-10,7,60,292
-61,-2710,-196,-54,23,-19,25,49,78,192
21,-2528,-229,-66,58,-27,59,94,88,39
88,-2335,-167,-39,89,-18,81,105,96,-139
76,-2153,-91,19,112,-29,48,79,41,-253
79,-2238,-35,31,92,-32,35,60,-48,-222
89,-1657,-69,-1,37,-43,16,38,-20,-59
66,-694,-80,-39,-15,-63,-11,43,47,-10
8,50,-33,-55,-34,-71,-42,36,13,-156
-78,634,16,-20,-15,-49,-41,63,-6,-271
-107,514,25,-1,-20,-35,-24,70,-7,-219
-42,91,-8,-17,-52,-51,-18,62,43,13
34,-271,-50,-52,-82,-70,-24,65,108,269
86,-912,-27,-21,-94,-75,-8,59,102,438
90,-1515,-76,72,-66,-78,-14,40,45,437
84,-2080,-44,94,-20,-62,4,39,11,328
96,-2847,78,88,4,-36,60,49,-7,151
31,-3493,131,86,20,-28,65,15,-63,-224
-2,-3148,139,107,33,-24,47,-37,-150,-567
14,-2353,129,110,31,-19,30,-51,-130,-491
-7,-1936,124,74,10,-33,-13,-52,-98,-273
-47,-1375,90,49,-3,-49,-21,-52,-98,-193
-62,-597,74,47,-1,-40,-33,-48,-100,-168
-54,453,70,68,13,-34,-49,-56,-87,-143
-47,1618,45,64,11,-37,-44,-62,-35,-114
-55,2630,-8,31,-13,-37,-55,-51,-38,-54
-44,3107,-62,0,-33,-34,-49,-31,-18,48
-11,3039,-94,-23,-21,-16,-1,0,37,154
34,329,-127,-23,0,-31,47,20,59,203
98,-5159,-148,-30,15,-40,58,58,72,220
149,-5118,-82,-33,30,10,50,65,64,231
117,-5015,-63,-57,24,1,34,55,62,209
58,-6444,-115,-112,-34,-78,-15,1,33,155
-33,-6110,-115,-124,-68,-117,-54,-19,45,167
-60,-5894,-100,-102,-61,-113,-30,6,98,189
-31,-5564,-107,-88,-48,-66,35,52,133,190
3,-4251,-10,-23,-23,-15,74,61,88,135
115,-3375,119,35,-21,-38,-21,-28,-47,46
195,-1886,110,40,-19,-18,-37,-38,-60,-22
139,-877,95,56,15,27,11,14,-35,-126
42,98,62,44,6,19,-5,10,0,-108
-61,864,32,19,-16,-10,-44,-23,1,18
-165,-676,17,6,0,15,-16,-8,-18,110
-205,-4508,17,-51,-8,29,-2,6,5,169
-211,-7785,-26,-132,-66,-26,-28,-7,23,211
-218,-8720,-36,-149,-74,-53,-34,-30,12,267
-166,-7735,19,-72,-26,-25,-20,-69,-44,240
-83,-4792,69,2,3,6,-36,-121,-145,71
-75,-2587,75,39,35,70,-30,-143,-195,-15
-65,-2973,69,35,60,129,-21,-172,-221,-111
-49,-5907,53,23,97,209,17,-151,-274,-429
-28,-7434,128,60,146,298,66,-102,-264,-638
20,-6747,136,52,164,321,84,-94,-213,-523
89,-4623,26,1,134,231,64,-54,-104,-226
147,-2272,-128,-94,67,82,53,20,84,50
204,-790,-199,-136,27,-9,52,79,259,155
237,128,-173,-107,-3,-84,55,125,295,172
214,1063,-77,-37,-10,-103,34,108,216,106
125,2587,-18,19,11,-66,27,100,185,11
22,3786,-15,23,-10,-60,7,106,208,-23
-149,4135,-72,-18,-54,-83,-5,84,197,-67
-191,4084,-36,-8,-54,-98,-31,39,130,-20
-59,2245,79,41,-25,-79,-24,-8,74,132
59,-481,96,8,-36,-48,-1,-2,77,280
70,-2555,81,-39,-66,-18,6,-3,97,264
10,-3509,74,-46,-75,28,-9,-32,46,9
-24,-4512,59,-9,-54,95,-8,-47,-17,-268
10,-5351,75,32,-1,102,-6,-57,-26,-268
-36,-5175,65,51,13,27,-22,-64,-54,-237
-120,-5425,45,73,49,-19,6,-40,-59,-246
-119,-5686,-6,65,87,-21,57,-7,-69,-205
-133,-5151,-87,-22,43,-19,48,-4,-50,-183
-206,-4115,-215,-68,-24,18,14,-56,-110,-226
-237,-3063,-204,-35,-31,138,37,-76,-152,-261
-179,-2321,-81,-39,-54,208,44,-74,-123,-212
-90,-900,-38,-63,-26,166,5,-104,-119,-132
-29,159,8,-49,53,31,-67,-140,-163,-88
-33,208,53,-47,135,-124,-121,-191,-222,-34
-41,-1524,54,-87,112,-248,-133,-193,-207,53
18,-3818,42,-96,3,-303,-97,-111,-112,174
107,-4154,49,-70,-100,-291,-127,-76,-57,263
205,-3931,21,-76,-171,-229,-114,-8,45,309
284,-3709,66,-67,-181,-146,-45,89,228,302
203,-3491,148,-7,-127,-61,24,175,349,173
107,-3298,94,-45,-81,-25,85,208,348,61
101,-3092,-45,-132,-61,-34,94,227,349,84
64,-2907,-96,-119,-43,-49,54,199,295,47
54,-2751,96,-10,-25,-114,-67,39,67,-104
19,-2578,164,38,-24,-121,-90,-28,-66,-224
-75,-2412,71,61,-12,-89,-75,-27,-61,-242
-43,-2250,-55,66,-2,-73,-98,-35,-70,-100
19,-2079,-44,58,21,-30,-76,-10,-9,41
99,-1926,101,69,58,0,-78,-35,-18,49
87,-1831,138,73,114,45,-22,-1,23,43
34,-1745,100,46,155,135,97,131,172,140
69,-1646,-14,-49,89,135,151,228,292,243
78,-1553,-91,-95,-14,55,120,209,276,225
-1,-1485,-104,-86,-68,-36,29,70,120,152
-91,-1433,-145,-84,-81,-40,9,24,49,127
-72,-1379,-61,-47,-50,-15,29,28,36,100
-49,-1314,36,26,6,38,31,-53,-67,5
-19,-1234,34,14,25,168,-21,-197,-246,-19
31,-1162,-33,-30,44,251,-34,-266,-339,9
-26,-1102,-77,-33,23,323,2,-305,-420,-108
-91,-1027,-179,-120,-128,351,-40,-386,-547,-293
-146,-966,-298,-241,-267,293,-45,-378,-515,-269
-265,-908,-267,-218,-207,208,21,-261,-346,-332
-175,-850,24,-4,4,153,-3,-226,-285,-502
-227,-787,106,41,94,65,-14,-98,-163,-478
-230,-741,9,-25,116,-136,-38,22,-3,-233
-113,-697,-69,-26,204,-164,-19,93,102,-117
-46,-666,-169,32,274,-131,26,154,206,-71
43,-616,-41,114,321,-97,66,263,361,61
102,-572,147,114,275,-75,58,372,470,120
216,-546,255,106,226,-46,46,418,413,148
290,-522,320,93,159,-60,67,353,318,197
256,-516,203,43,60,-81,98,265,292,208
170,-497,46,-5,-53,-141,39,136,207,149
1,-462,-87,-52,-149,-206,-12,53,169,129
-119,-435,-63,-10,-95,-115,54,77,165,130
-26,-410,116,91,-84,-131,-5,2,56,197
50,-378,236,130,-106,-169,-87,-73,-32,171
19,-354,341,173,-23,-102,-78,-93,-91,65
76,-334,329,151,-55,-92,-62,-129,-192,67
139,-307,278,43,-187,-119,-60,-155,-232,192
167,-283,150,-50,-278,-169,-93,-165,-222,348
190,-271,120,-29,-256,-172,-102,-195,-217,362
222,-270,116,64,-146,-122,-104,-179,-167,281
205,-261,0,97,-38,-7,-45,-34,47,251
28,-241,-147,33,-3,76,33,136,333,183
-127,-228,-130,-39,-11,75,32,101,233,-64
-87,-211,-14,-34,21,79,-1,2,30,-126
-41,-189,-33,-38,22,100,32,-12,-40,-54
-25,-186,-281,-40,4,83,68,-21,-125,-131
44,-180,-307,-42,-31,47,84,-3,-125,-112
73,-165,-74,-39,-79,31,75,17,-18,13
145,-155,35,-28,-98,54,57,52,137,95
171,-144,-1,-55,-51,134,91,59,151,116
78,-131,-99,-101,-7,109,54,-31,-6,115
18,-122,-225,-136,15,55,-57,-134,-124,36
66,-109,-115,-89,42,25,-151,-160,-117,85
125,-92,3,-48,61,-16,-177,-105,-9,184
120,-93,33,-11,129,-46,-126,-21,46,173
24,-87,48,-51,122,-108,-135,-8,26,109
-82,-85,219,46,200,-29,-119,-55,-137,176
-108,-92,307,181,280,213,-3,-64,-320,185
-119,-97,208,159,167,392,170,-19,-339,90
-196,-93,-103,89,77,579,340,32,-265,89
-225,-76,-420,-30,50,613,369,99,-117,51
-249,-72,-341,-48,66,395,269,144,79,-244
-292,-66,-166,5,87,197,165,126,232,-582
-389,-63,-59,34,103,151,129,34,98,-694
-409,-67,-47,-40,13,70,95,58,39,-558
-327,-60,-119,-151,-133,11,29,81,37,-339
-208,-52,-178,-203,-162,92,-27,-86,-196,-199
-107,-42,-252,-178,-23,252,-41,-194,-337,-103
-86,-40,-285,-154,14,279,2,-83,-129,-19
-20,-35,-102,1,125,176,-55,-130,-84,-9
-83,-34,103,272,401,122,-118,-183,-53,-156
-329,-30,175,402,521,63,-112,-12,210,-334
-386,-25,238,377,394,-56,-101,169,440,-275
-255,-24,262,300,240,-98,-95,183,368,-147
-58,-20,8,140,70,-103,-76,181,317,-38
86,-8,9,60,45,-21,21,236,337,163
156,-2,115,59,98,9,27,169,298,252
157,3,195,93,160,8,-92,-16,140,165
157,4,336,160,131,22,-98,-134,-73,71
162,1,323,228,41,-68,-151,-247,-309,-43
133,-4,271,156,-179,-244,-286,-321,-320,-30
171,1,146,-71,-474,-353,-297,-233,-194,136
199,18,108,-116,-514,-318,-225,-207,-265,228
283,29,171,-63,-352,-184,-161,-213,-403,248
474,34,90,-137,-202,-128,-134,-129,-297,357
494,55,43,-161,-15,-90,-80,-26,-142,456
234,86,156,-37,111,-40,-50,-5,-123,389
-25,93,86,10,94,-44,-98,-20,-149,250
-272,96,-4,-12,49,-35,-118,97,183,142
-229,160,-6,-30,-3,65,-53,220,533,243
14,471,93,36,-91,51,8,138,282,104
31,534,221,148,-163,-35,9,-88,-334,-292
-58,306,111,154,-157,-66,-54,-281,-604,-530
70,102,-197,-17,-229,-76,-73,-213,-184,-458
81,332,-166,-16,-83,106,3,-36,286,-401
-67,2021,48,62,156,356,69,32,388,-430
-211,3805,247,197,483,585,73,20,129,-485
-248,4984,547,376,758,689,74,-59,-288,-474
-150,7008,689,429,762,736,88,-147,-566,-318
-12,9338,657,413,539,671,0,-358,-815,-211
-17,11309,413,352,309,597,-53,-488,-973,-228
-104,12978,164,143,-5,407,-75,-367,-673,-203
-166,14198,-227,-166,-274,194,9,-75,-51,-155
-200,15033,-597,-385,-403,89,174,251,464,-85
-165,14869,-577,-404,-433,-71,194,465,763,89
-45,14377,-344,-315,-350,-262,91,498,768,350
0,13759,-97,-215,-179,-300,57,392,510,461
76,12861,-87,-226,-182,-331,-96,146,316,403
200,11960,-114,-328,-407,-405,-319,-88,312,236
243,11254,-319,-328,-348,-56,-263,-154,315,95
198,10659,-470,-234,-119,467,-102,-80,415,165
142,10025,38,-21,75,613,-64,-86,400,140
7,9619,506,276,274,244,-18,-130,192,-18
-92,9186,640,342,312,-147,43,-80,-79,-102
-99,8759,426,207,182,-443,14,-74,-259,-145
-67,8300,172,64,-57,-720,-75,-119,-241,-138
-257,7835,79,39,-199,-478,-48,-133,-226,-270
-808,7361,-175,-48,-504,-43,-94,-374,-470,-535
-1197,6918,-637,-330,-873,306,-288,-887,-943,-759
-1150,6508,-980,-367,-714,825,-405,-1261,-1343,-910
-990,6111,-1229,-295,-249,1248,-264,-1181,-1377,-937
-892,5752,-877,-232,194,1053,-160,-859,-1107,-912
-857,5398,-413,-106,716,431,-91,-366,-411,-868
-489,5079,11,73,1196,-258,-69,81,257,-573
40,4783,383,226,1421,-468,-20,126,252,-269
152,4496,520,455,1415,97,171,-73,-219,-214
143,4239,483,621,1086,603,269,-173,-330,-52
384,3982,439,577,566,677,316,-115,-190,187
601,3743,617,404,-57,148,223,63,153,324
629,3518,428,59,-420,-585,155,546,770,410
650,3302,-164,-188,-272,-919,186,999,1147,578
995,3119,-624,-340,-54,-860,257,1255,1603,1006
935,2939,-820,-450,27,-654,284,1348,1849,1241
698,2772,-570,-431,-2,-486,243,1267,1730,1168
844,2606,-275,-313,-211,-473,163,1098,1499,1059
1080,2453,63,-102,-465,-595,30,857,1157,1133
1062,2315,303,48,-718,-749,-80,686,947,1067
1006,2167,352,-4,-975,-944,-204,584,967,875
816,2036,245,-75,-923,-869,-227,447,833,552
389,1914,242,-8,-576,-496,-39,445,633,208
-73,1801,245,32,-366,-261,42,447,567,31
-249,1697,164,44,-322,-204,-35,245,249,-218
-117,1588,185,120,-263,-128,-46,93,-32,-457
153,1492,178,163,-215,-40,-41,-28,-98,-380
239,1406,169,123,-267,10,-44,-214,-99,-222
101,1326,171,64,-339,16,-98,-326,-209,-198
-79,1243,200,65,-315,-9,-162,-387,-218,-240
-235,1174,316,102,-232,-35,-201,-454,-286,-321
-294,1110,368,61,-234,-130,-305,-660,-627,-398
-383,1046,201,-17,-239,-195,-344,-764,-853,-421
-448,971,17,-17,-91,-98,-170,-652,-907,-391
-432,907,2,0,55,202,38,-540,-899,-346
-417,854,150,119,205,598,73,-608,-967,-380
-483,819,162,239,436,1079,136,-530,-843,-529
-461,764,-239,82,494,1263,263,-203,-248,-494
-370,714,-837,-120,548,1197,476,183,250,-216
-46,673,-915,-241,502,830,546,539,730,177
285,632,-807,-305,281,174,407,576,910,502
402,592,-686,-367,7,-214,374,474,704,638
268,559,-335,-253,-205,-227,269,296,423,404
42,516,-47,-22,-133,-30,230,176,453,97
-196,494,255,233,121,254,294,191,574,-85
-239,467,443,287,231,571,348,85,192,-233
-239,438,509,246,127,1112,292,-309,-516,-506
-412,405,337,71,-195,1821,343,-619,-952,-781
-439,384,-48,-42,-421,1774,312,-736,-1057,-779
-455,365,-506,-79,-432,1060,16,-957,-1265,-759
-596,338,-494,-114,-384,68,-234,-902,-917,-705
-595,328,-234,-101,-278,-902,-234,-379,-9,-449
-452,300,3,77,88,-1501,-278,-91,331,-276
-34,282,163,192,711,-1284,-158,126,456,52
374,278,533,405,1073,-772,23,320,706,373
443,258,986,717,868,-578,-71,227,592,415
470,235,1027,809,453,-328,-36,79,239,489
432,221,1066,695,-153,-310,-17,-6,70,502
463,207,821,354,-784,-705,-188,63,364,548
387,187,426,67,-930,-1014,-242,172,676,552
53,175,-148,-161,-555,-818,-157,187,498,205
94,169,-1204,-588,-211,-534,-41,271,537,89
423,157,-1554,-747,246,-351,135,457,772,454
438,150,-1087,-497,768,-131,210,507,743,611
289,139,-713,-343,822,4,250,426,520,563
414,130,-426,-235,437,68,438,242,402,676
513,124,-89,-74,-34,23,400,81,327,576
152,122,165,-77,-521,-165,177,305,890,315
-132,114,123,-50,-309,4,177,372,642,107
-288,108,71,108,17,310,296,578,682,31
-151,109,24,133,130,622,472,610,635,-49
347,105,107,68,52,712,315,263,310,-115
653,90,387,176,100,587,-14,-161,3,-112
397,78,535,188,107,257,-281,-418,-281,-187
51,67,524,107,40,-15,-436,-419,-470,-205
-179,68,350,12,-64,-109,-432,-299,-415,-161
-322,75,66,-71,-145,87,-345,-266,-352,-209
-489,69,-73,36,-10,653,-157,-257,-331,-398
-434,62,-311,69,113,894,113,-122,-315,-438
-157,64,-295,52,54,556,215,-141,-521,-379
-91,56,-24,102,-74,86,146,-217,-899,-388
-173,49,-28,38,-272,-185,39,-142,-907,-214
-211,40,-233,-175,-515,-416,-24,161,-340,213
-314,39,-324,-279,-570,-481,-80,337,101,428
-372,38,-112,-183,-516,-393,-202,291,342,419
-265,42,301,78,-213,-188,-159,284,327,371
-202,35,412,273,230,-26,-92,152,-121,169
-273,47,-111,88,363,-108,-231,-18,-404,-156
-82,47,-732,-211,260,-261,-445,-131,-340,-377
176,45,-688,-319,86,-248,-554,-235,-374,-327
171,33,-236,-204,33,-16,-556,-317,-535,-370
123,27,-48,-90,48,331,-345,-223,-412,-331
190,30,17,-13,0,280,-161,61,142,44
318,23,175,92,10,50,-73,347,419,432
467,12,214,42,-30,21,10,368,258,646
328,14,241,91,78,325,77,233,-42,613
-126,10,440,324,295,585,91,19,-647,207
-739,5,198,325,352,467,47,-92,-890,-119
-1042,5,83,326,327,183,-128,-155,-627,-402
-771,11,230,253,139,-162,-294,41,309,-303
-386,9,244,175,-5,-311,-255,253,810,-114
-236,4,210,99,-86,-117,-53,453,1001,27
-93,6,270,62,-121,47,137,497,880,79
363,17,-26,-152,-458,-295,-123,41,112,-37
1150,10,-453,-327,-670,-668,-590,-467,-395,-21
878,12,-298,-204,-478,-676,-665,-573,-482,-91
76,9,-180,-67,-44,-511,-474,-445,-442,-257
-508,6,220,202,470,-306,-377,-378,-499,-519
-877,10,593,413,688,-48,-262,-264,-509,-709
-820,15,711,466,422,118,-87,-103,-409,-526
-292,15,534,292,1,21,65,86,-175,-161
631,5,178,31,-73,111,249,254,37,143
843,3,3,-75,-13,180,312,275,84,202
548,0,-61,-145,-84,104,292,299,91,234
403,-3,-414,-253,-166,69,273,335,36,322
370,0,-505,-299,-219,-36,152,235,-95,309
376,7,-432,-304,-234,-54,93,153,-172,247
431,5,-605,-368,-269,-50,67,137,-134,347
409,2,-677,-361,-206,-68,44,83,-24,433
215,11,-476,-239,-15,-8,112,44,12,364
119,14,-97,-98,5,-10,130,29,-38,297
106,7,-11,-130,-170,-161,57,20,73,264
-38,4,-203,-177,-217,-181,101,8,97,188
-318,0,-130,-79,-115,-52,149,-62,-157,96
-597,-3,59,19,3,105,231,-85,-431,-177
-663,-11,131,63,140,286,388,89,-431,-348
-476,0,45,23,210,281,458,222,-302,-213
-434,10,-9,2,150,13,267,127,-218,-94
-550,1,-213,-117,-89,-283,89,249,446,60
-344,6,-295,-94,-198,-381,49,356,888,116
124,9,-7,103,-88,-314,-48,48,362,-106
5,11,159,168,-9,-262,-188,-241,-65,-351
-133,5,190,161,63,-22,-166,-347,-237,-411
127,4,181,85,41,173,-166,-486,-461,-336
263,1,190,49,14,326,-122,-465,-515,-209
288,-3,226,0,-108,255,2,-206,-434,-11
269,-7,122,-161,-296,155,180,153,-275,154
270,0,-138,-231,-333,49,188,208,-93,199
285,-2,-179,-169,-352,-161,102,10,-238,93
238,-1,-94,-32,-216,-236,58,-162,-405,-42
197,-5,-175,-46,-108,-230,85,-103,-309,-16
255,-3,-263,-165,-88,-174,148,-44,-147,101
315,-2,-136,-176,-30,-173,20,-112,-27,225
49,-16,-169,-184,47,-229,-87,-39,170,311
-123,-4,-182,-105,218,-224,-108,51,308,423
80,-6,-154,-57,331,-112,-24,129,278,524
296,-14,2,-20,250,-293,-115,-5,-26,307
279,-16,92,27,156,-519,-209,-67,-74,71
167,-15,268,99,111,-546,-338,-77,28,60
129,-10,637,297,72,-466,-510,-194,-51,232
-32,-12,1039,502,94,-386,-607,-311,-241,153
-114,-9,1013,394,0,-363,-493,-220,-186,119
-80,-15,246,-51,-134,-283,-216,-86,-114,118
-11,-17,-628,-358,-35,414,86,59,-35,-84
3,-9,-1192,-381,193,1100,230,154,61,-284
-186,-14,-743,-162,260,960,225,-24,-216,-394
-375,-15,-236,1,296,626,310,-208,-611,-512
-408,-11,55,122,359,306,330,-369,-941,-602
-295,-4,217,119,267,-51,310,-354,-831,-455
-359,-11,95,-93,-144,-295,288,-219,-558,-301
-385,-20,-242,-323,-534,-426,164,-182,-376,-220
-149,-30,-404,-304,-487,-408,50,-111,-63,-64
-169,-23,-125,-106,-196,-344,22,-9,182,6
-466,-9,54,170,-5,-385,2,92,276,-144
-507,-22,263,392,274,-272,133,358,531,-193
-107,-29,203,217,338,-325,208,602,759,73
-65,-32,57,117,451,-264,198,541,463,146
-306,-23,-59,71,449,26,269,422,72,297
-77,-9,-330,-229,122,137,388,471,-59,830
274,-10,-312,-267,-101,13,245,410,-42,942
631,-8,-264,-206,-132,-137,19,158,-170,549
1058,-19,-161,-169,-213,-337,-170,-83,-74,252
904,-20,72,-68,-296,-354,-172,211,1021,243
473,-22,228,94,-220,-78,8,391,1301,-31
17,-27,309,209,-120,281,172,360,808,-334
-138,-30,340,92,-230,78,-42,34,179,-473
-127,-24,213,27,-177,-123,-107,-77,20,-361
-315,-20,121,95,189,-38,-2,-66,-52,-263
-138,-20,34,90,544,100,102,0,30,66
137,-16,238,125,615,215,148,28,72,310
251,-12,310,115,455,320,131,-83,-104,233
284,-7,-66,-74,126,219,87,-114,-169,164
220,-5,-357,-169,-78,88,12,-108,-177,92
158,-8,-275,-151,-275,-150,-90,-128,-335,-115
27,-14,-53,-75,-289,-327,-149,-210,-544,-290
-125,-16,39,0,-225,-344,-102,-210,-602,-329
-110,-21,-231,-138,-210,-223,-9,-97,-628,-126
-80,-9,-209,-124,-43,19,55,-186,-894,154
-345,-25,49,91,148,126,-110,-532,-1408,178
-539,-108,-182,16,150,95,-149,-427,-1037,346
-668,-356,-486,-135,42,64,-12,-70,-150,390
-609,-678,-292,-140,-134,-116,3,84,682,176
-47,-646,40,-97,-247,-254,39,243,1354,178
308,-458,173,-48,-179,-91,210,365,1315,178
112,-242,179,58,-14,75,159,25,346,-382
331,-56,147,46,21,47,-206,-475,-548,-646
528,94,420,90,106,30,-429,-553,-560,-407
274,123,425,198,319,61,-250,-116,34,-96
170,135,79,286,509,169,119,263,378,75
255,123,-202,183,260,54,320,528,730,316
241,111,-167,-44,-273,-360,184,459,636,328
-89,102,100,85,-259,-400,96,225,199,111
-332,95,-41,33,-134,-105,151,201,125,154
-551,87,-456,-191,-148,359,318,217,181,247
-442,65,-388,-138,-122,614,280,-62,-234,15
-11,28,-150,-104,-96,596,198,-324,-495,-166
-23,-82,-147,-159,-49,616,313,-256,-234,-390
-357,-372,-123,-155,-27,574,364,-161,-131,-716
-339,-708,-79,-90,-57,302,231,-250,-309,-824
-55,-956,-69,2,55,198,101,-244,-211,-459
32,-1469,108,34,166,148,-4,-94,93,-37
41,-1868,284,-20,256,-104,-115,0,210,284
74,-1581,-6,-177,365,-239,-128,135,289,551
10,-1070,-555,-246,546,-131,16,375,602,712
-228,-683,-108,202,638,-178,-72,281,486,273
107,-191,494,510,369,-286,-289,-44,35,-192
456,261,377,367,-131,-241,-313,-143,-107,-136
399,298,126,121,-459,71,-153,-41,75,88
341,169,226,117,-480,352,51,-77,47,27
320,-349,163,9,-436,415,130,-278,-229,-17
-67,-1300,58,-70,-192,489,143,-500,-618,-208
-527,-2054,139,18,85,362,100,-478,-800,-412
-580,-2731,110,0,99,-44,147,-60,-696,-339
-340,-3391,-20,-11,141,-290,203,206,-667,-187
-46,-4098,277,169,295,-382,53,-12,-831,-103
133,-4497,945,453,341,-336,-123,-245,-707,22
443,-4676,1145,533,392,207,-155,-256,-369,363
641,-4467,332,215,271,472,-180,-143,41,705
372,-3738,-125,59,67,77,-291,-273,-11,377
-252,-2973,258,152,-227,-374,-291,-426,-302,-217
-645,-1723,76,-75,-561,-707,-200,-230,16,-349
-520,-559,-389,-312,-686,-1011,-288,-223,16,-368
-321,560,-400,-212,-476,-934,-317,-264,-265,-514
-249,1457,-240,-68,-196,-757,-222,-32,82,-395
105,1734,43,-41,57,-714,-131,408,888,87
565,1787,-223,-245,271,-434,106,801,1597,692
823,1720,-730,-349,275,-154,290,895,1634,891
813,1154,-617,-324,10,-78,293,688,1092,675
542,313,-205,-280,-269,-102,267,535,718,442
307,-231,134,-35,-202,-45,212,412,515,315
211,-787,251,199,24,59,236,323,290,264
-10,-1299,48,183,125,164,268,264,109,71
45,-1394,-86,-44,-89,87,97,42,-153,-107
185,-1449,-102,-171,-239,54,71,-4,-241,-113
151,-1359,-260,-185,-154,139,96,9,-248,58
61,-1098,-285,-38,65,259,83,-45,-285,119
26,-564,-202,34,106,240,70,-129,-496,67
-3,-119,-94,88,104,58,-60,-283,-664,-21
-1,460,82,116,69,-105,-160,-150,-58,150
80,984,181,127,-18,-201,-204,30,513,253
56,1067,117,43,-70,-174,-174,114,755,135
10,939,-15,-74,-75,-7,-41,119,795,-70
33,680,-113,-110,-38,356,92,-99,146,-268
-169,61,-59,-5,63,724,155,-339,-647,-427
-398,-728,-72,-65,-121,515,23,-439,-1026,-550
-529,-1323,-71,-164,-311,116,-185,-575,-1242,-645
-603,-1757,-90,-234,-287,144,-197,-433,-611,-438
-504,-2167,48,-153,-55,326,-111,-82,419,-25
-196,-2661,383,82,238,316,-63,54,632,201
197,-3119,408,270,606,417,165,254,521,209
385,-3253,336,354,627,465,322,326,350,121
134,-3484,566,448,392,438,338,207,53,-14
-105,-3146,773,403,101,275,287,168,1,-100
-133,-2399,660,191,-295,-141,110,50,-151,-144
-16,-1808,30,-104,-530,-507,-199,-245,-561,-221
353,-1267,-306,-247,-731,-891,-482,-354,-340,-16
309,-849,-787,-517,-984,-1074,-318,72,630,339
78,-717,-805,-540,-957,-1018,-270,144,784,283
-214,-809,-396,-278,-603,-721,-362,-220,182,-82
-396,-1280,-334,-77,-66,-118,-104,-217,-301,-343
-181,-1948,-349,29,317,167,85,69,-209,-252
-224,-2833,-162,130,452,275,194,308,12,-308
-338,-3712,-81,84,500,482,201,308,96,-350
-120,-4056,213,72,551,845,-1,-102,-131,-223
-40,-4405,309,88,743,1020,-112,-399,-234,-79
-157,-4618,210,193,968,964,16,-378,-327,-137
2,-4145,70,87,592,460,105,-177,-219,-46
111,-3570,181,3,1,-182,124,85,176,56
203,-2989,406,106,-383,-584,138,249,402,139
245,-2270,545,251,-341,-297,175,216,281,66
10,-1770,826,446,-158,-112,-52,-128,-167,-252
-133,-1235,991,482,-28,-96,-74,-155,-225,-224
-104,-415,879,404,199,-26,73,-33,-155,-15
78,511,-202,-46,274,-100,45,-58,-246,272
130,818,-615,-330,276,-86,57,-9,-386,447
221,515,-525,-417,59,-80,113,148,-336,448
277,-60,-1108,-641,-218,-114,173,268,-61,423
101,-933,-1092,-598,-252,-138,182,308,282,252
-123,-1859,-484,-320,-78,20,191,206,385,103
-38,-2638,-237,-254,-123,85,78,-54,39,-51
93,-3146,137,30,-27,40,-139,-317,-268,-260
-88,-3828,528,325,200,276,-34,-79,245,-127
-436,-4286,672,474,374,503,194,235,640,-5
-583,-4471,576,428,292,303,280,326,446,-188
-199,-4332,276,127,-51,-151,137,197,177,-209
139,-4236,-150,-93,-212,-343,-117,-195,-240,-71
128,-3252,-274,-129,-171,-51,-197,-381,-474,-14
86,-2222,-93,-4,-19,537,-119,-285,-432,-79
129,-963,-19,20,45,874,10,-127,-289,42
155,62,200,46,62,830,10,-166,-240,69
244,734,-30,7,165,704,-47,-182,-68,106
278,659,-725,-367,-134,307,0,85,304,311
208,-198,-430,-226,-156,-114,-67,305,581,197
17,-1057,93,98,49,-337,-144,324,383,-130
12,-1730,116,15,-106,-640,-135,342,274,-154
133,-2423,-2,-111,-328,-1000,-160,295,265,-176
149,-3095,-215,-101,-304,-1115,-136,237,239,-161
421,-3380,318,213,129,-862,-143,72,-21,7
310,-3623,1274,657,489,-408,-117,-131,-366,-75
-182,-3145,87,34,-288,-82,150,412,713,127
114,-2304,-366,-191,-418,-229,81,303,418,117
19,-1423,159,13,-253,-538,-256,-195,-485,-206
-136,-562,-100,32,-65,-226,-332,-399,-1147,-505
-246,392,-203,64,108,683,-336,-707,-1721,-752
-472,1183,357,218,134,933,-407,-908,-1902,-819
-577,1820,691,219,57,484,-348,-678,-1366,-544
-445,2037,-119,-212,56,192,-92,-276,-630,-119
-423,1734,-962,-421,196,35,179,270,586,136
-216,1435,-1071,-368,178,-199,222,563,1519,250
127,989,-492,-83,83,-205,188,538,1262,248
215,83,-66,36,-60,-329,20,243,475,111
177,-1060,-78,-28,-121,-508,-159,-73,-201,184
149,-1980,-74,12,-116,-545,-220,-178,-411,372
182,-2576,140,89,-314,-506,-165,-81,-160,388
197,-3469,122,76,-508,-323,-64,7,187,221
348,-3411,-83,-46,-476,147,206,256,894,209
424,-3380,157,92,-252,493,487,578,1394,169
273,-3031,676,230,-35,496,592,611,838,11
85,-2466,683,56,65,241,412,195,-66,-157
-92,-2785,-364,-384,174,152,350,86,-287,-111
-252,-2768,-648,-385,488,122,299,128,-276,-46
-175,-1736,-622,-261,539,29,165,127,-314,-45
-13,-1093,-562,-282,158,-209,37,400,325,87
234,-831,-96,-178,-127,-335,0,680,1316,395
296,-1136,270,195,101,-34,-19,433,993,165
276,-1773,206,284,223,155,-81,93,207,-60
346,-2699,163,202,48,40,-137,-26,-85,80
373,-3455,-1,41,-218,-176,-196,-176,-337,181
213,-4211,-158,-61,-271,-302,-254,-296,-471,54
-11,-5190,-171,-116,-282,-349,-237,-223,-250,-113
-105,-6250,-96,-141,-345,-309,-248,-195,-95,-250
-192,-6753,223,-10,-224,-93,-264,-220,27,-234
-37,-6474,529,192,98,218,-178,-296,-99,-98
-59,-5932,689,285,238,312,20,-227,-198,-39
-539,-5635,772,217,29,168,169,-31,77,-96
-678,-5241,-70,-82,-89,110,381,404,582,27
-354,-4283,-1317,-440,132,215,554,647,734,160
-160,-3265,-794,-112,425,261,305,190,168,-184
-45,-2925,4,233,458,175,68,-68,-238,-334
-58,-2785,122,197,183,-148,-98,-124,-328,-208
-55,-2716,286,235,3,-389,-275,-279,-500,-112
13,-2825,671,400,35,-430,-405,-454,-628,-52
24,-3300,959,396,-64,-399,-464,-562,-769,-96
92,-3683,1144,315,-256,-395,-497,-701,-1013,-154
115,-4477,495,63,-299,-203,-347,-588,-810,-105
321,-4508,-893,-457,-278,209,43,-39,139,452
256,-4241,-1198,-577,-240,314,149,20,274,570
37,-3988,-857,-432,-170,328,186,-191,-202,310
-212,-3757,-784,-533,-204,452,359,-161,-389,19
-382,-3527,-585,-354,9,546,345,-167,-388,-284
-207,-3294,-293,-68,256,435,238,-124,-147,-276
-184,-3067,190,173,371,134,16,-150,69,-216
-199,-2691,656,382,379,-122,-155,-118,223,-161
246,-1799,354,206,145,-305,-328,-167,148,142
616,-1061,-290,-73,-10,-236,-241,-67,146,350
549,-456,-215,-59,123,73,134,340,541,404
313,-67,423,173,250,153,305,670,1049,289
75,-1254,283,133,37,3,369,872,1347,175
-187,-1642,225,138,-220,-86,298,610,759,-5
-460,-1682,293,91,-462,-235,38,127,41,-60
-331,-1894,110,-20,-465,-114,-4,-68,-178,55
-293,-1966,70,-2,-325,176,42,-151,-411,-199
-151,-1975,-171,-31,-336,121,-156,-348,-552,-557
46,-1876,-372,13,-113,-34,-205,-314,-290,-561
51,-1770,-444,-7,336,73,42,-71,-121,-514
21,-1645,-402,-143,529,181,240,263,106,-305
-103,-1527,-180,-165,482,245,261,283,72,-123
-144,-1311,-179,-10,513,356,162,3,-254,-89
-24,-799,-43,166,628,505,168,-121,-401,-97
-147,2813,205,210,-22,-136,-27,-184,-409,138
-446,1556,651,402,-62,-104,-28,-365,-763,-53
-227,811,1148,574,-85,-127,-97,-506,-1045,-186
287,73,1395,587,-73,-286,-295,-608,-1005,-10
224,-893,1249,422,-52,-394,-423,-385,-124,354
-227,-1481,795,17,-132,-231,-170,105,568,322
-315,-1509,322,-254,-273,-221,-73,-56,-113,27
-62,-1417,-1057,-535,-307,-49,100,-185,-690,134
282,-1295,-1504,-509,-211,91,211,-24,-392,459
439,-882,-644,-236,-160,-33,43,9,-153,496
477,3745,-227,-189,-277,-305,-235,-49,173,374
437,13761,-43,-88,-231,-397,-252,338,1521,397
430,12965,-188,115,-6,-228,14,738,2112,380
194,9955,-100,254,128,-57,41,483,1234,1
-143,12067,383,361,209,-32,-81,177,560,-363
-320,11914,356,212,177,-164,-166,130,434,-411
-193,11184,-742,-226,261,-77,-121,200,468,-227
147,10560,-906,-330,362,384,72,274,464,132
322,9586,-281,-74,253,583,144,235,399,290
207,8184,22,86,99,498,213,170,267,193
119,6445,95,81,-38,235,164,-20,-98,33
11,4903,314,44,-214,-157,-108,-387,-685,-155
-292,3550,379,34,-166,-103,-204,-670,-1391,-474
-462,2052,283,-43,-113,384,-199,-822,-1931,-618
-482,64,151,-197,-184,572,-300,-932,-2035,-388
-373,-1537,-193,-299,20,1410,84,-602,-1549,-122
-323,-1876,-539,-270,387,2051,523,-295,-965,-148
-321,-1973,-708,-306,478,1641,636,-28,-7,-48
-421,-1826,-453,-76,612,992,541,167,650,4
-403,-1344,36,106,422,180,298,-14,-28,-296
-205,-635,33,20,0,-711,44,-177,-584,-358
-25,167,-356,-138,-147,-953,-40,-45,-212,5
124,859,-229,-70,-87,-930,-140,99,364,144
291,1193,269,142,-174,-992,-231,237,839,137
345,1055,160,147,-238,-930,-104,508,1063,147
391,504,-313,-141,-357,-901,25,789,1360,196
377,-242,-268,-199,-357,-747,-1,706,1195,263
12,-1061,-19,-58,-218,-315,40,307,264,144
-156,-1859,243,120,-206,-177,-44,-187,-694,273
29,-2726,1074,475,-191,-517,-374,-609,-933,476
235,-3755,1770,685,-11,-718,-505,-659,-990,494
272,-4242,1955,619,17,-903,-652,-630,-1011,117
353,-3147,1029,192,-189,-890,-575,-341,-362,-103
658,-1870,-1139,-504,-124,-58,161,381,815,361
674,-1577,-2473,-991,-169,620,808,1090,2066,743
163,-2277,-1379,-536,-53,836,807,924,1977,280
-257,-1577,-545,-193,-1,816,674,404,580,-341
-555,-79,-308,-128,-61,561,363,-50,-565,-401
-817,1153,-31,23,-4,423,90,-277,-980,-152
-821,2290,-37,-82,-20,619,110,-283,-1370,-179
-610,3112,-465,-409,-162,957,74,-286,-1148,-319
-209,3292,-744,-549,-337,1387,120,82,300,-186
-33,2856,-168,-211,-94,1504,246,257,1018,-61
-295,2181,345,260,483,1386,454,32,272,-286
-489,1309,378,449,618,635,222,-457,-898,-644
-380,489,291,304,324,-492,-226,-707,-1212,-740
-244,-12,526,169,215,-1072,-496,-243,47,-523
99,-262,869,295,619,-1026,-565,262,1338,-260
343,-936,571,292,699,-861,-466,437,1454,-17
335,-2358,225,267,476,-578,-392,238,753,112
215,-5251,288,339,166,-404,-417,-78,180,23
190,-7087,241,262,-163,65,-124,-65,277,113
246,-6847,78,120,-56,682,354,25,301,231
63,-6333,286,109,328,1166,618,5,12,-76
-395,-4729,775,133,73,1552,434,-325,-779,-751
-955,-1524,643,-119,-463,2085,253,-841,-2123,-1314
-1076,-606,-786,-613,-712,2065,204,-1027,-2796,-1223
-894,-2578,-968,-603,-399,1413,-131,-1110,-2688,-767
-497,-4773,-490,-264,84,193,-548,-945,-2014,-99
305,-5032,-512,-362,268,-1662,-774,-122,79,1086
861,-4730,-472,-394,580,-2389,-626,703,2201,1814
814,-4427,-800,-233,846,-1825,-190,1139,2943,1525
987,-4012,-233,133,859,-1282,51,1348,3055,1172
1023,-3840,819,644,654,-974,148,1432,2812,759
740,-3787,1730,1091,210,-1062,98,1190,1876,455
499,-3535,2133,1128,-260,-1011,-82,741,1092,310
305,-3034,2210,805,-699,-1077,-293,304,660,-16
310,-1429,1451,316,-938,-1365,-465,-6,178,-358
468,332,-843,-426,-827,-1076,-318,11,20,-160
349,761,-2015,-770,-553,-597,-15,208,114,69
258,1408,-755,-270,-244,-339,159,327,169,177
475,2556,-493,-171,-61,-85,287,449,282,433
515,2940,-511,-140,31,32,242,339,66,363
348,4001,54,79,-1,-78,-13,74,-300,109
299,7738,361,144,-104,-149,-48,9,-514,96
292,7483,411,140,-209,-203,-67,-60,-640,216
138,3851,455,186,-325,-347,-231,-243,-649,141
-33,2885,250,130,-452,-442,-403,-419,-749,-110
-77,3156,-257,-60,-342,31,-244,-300,-562,-118
-106,1628,-319,-19,31,639,-51,-203,-390,-98
20,619,-169,-11,55,536,23,-58,-18,235
35,1206,-207,-127,-143,264,146,-41,-164,411
-126,986,89,-85,-272,62,189,-160,-513,264
-408,861,619,43,-302,-275,24,-414,-851,-104
-748,1955,397,-101,-265,-435,-100,-527,-833,-459
-864,2895,-328,-285,-257,-126,-22,-407,-322,-576
-777,3129,-341,-278,-468,547,128,-382,-217,-771
-635,3883,-385,-395,-632,1345,388,-432,-447,-965
-743,4877,-527,-310,-138,1827,605,-322,-396,-897
-517,4698,-669,-37,533,1557,538,-211,-103,-396
-47,3709,-431,107,694,735,324,-50,405,193
-8,2969,59,174,729,-57,195,365,758,338
-4,1862,577,362,849,-571,-85,498,674,186
201,873,746,608,924,-769,-463,72,161,-13
538,155,-102,350,511,-716,-406,78,-59,119
736,-592,-119,238,-58,-875,-372,139,-154,455
616,-1397,599,302,-379,-998,-376,111,-271,739
555,-1978,667,-77,-775,-921,-297,42,-317,1054
275,-2190,429,-463,-1046,-555,-205,-302,-760,859
83,-2038,-129,-598,-908,6,-135,-617,-1141,401
-123,-1494,-418,-418,-363,372,-157,-758,-1177,30
-208,-543,-954,-390,65,331,-127,-535,-624,26
-20,268,-747,-363,224,122,-5,-186,-268,161
76,997,-662,-332,381,116,170,34,-282,244
-166,1745,-749,-214,654,257,182,-19,-203,74
-415,2181,-96,233,910,495,272,94,336,-298
-387,2433,648,519,601,296,163,303,789,-593
-171,2376,1219,749,121,-241,-112,461,1311,-672
75,2263,1278,762,-153,-455,-141,479,1345,-466
-29,1614,798,434,-347,-330,-35,336,958,-328
-128,422,32,-174,-328,-96,30,-84,45,-278
104,-14,-1113,-489,-134,318,345,229,107,-23
358,-543,-1631,-585,-91,580,630,717,573,356
96,-802,-417,-116,-93,317,320,306,78,143
-267,-630,293,231,-98,101,11,-319,-693,-150
-381,-376,310,274,-261,-25,-185,-440,-851,-170
-340,123,186,189,-297,-231,-336,-209,-516,-95
-130,816,182,170,32,-192,-311,-124,-348,24
399,1880,-191,-99,292,-56,-161,-47,-172,186
676,3009,-787,-434,515,320,104,424,1055,560
424,3728,-683,-292,657,671,255,815,2048,629
201,4362,-38,140,514,552,155,476,1132,257
36,4984,255,196,83,318,158,211,408,82
-93,7095,406,229,-114,223,242,98,162,1
-164,8196,704,383,-190,-31,44,-285,-457,-325
-318,7101,723,292,-221,264,-90,-581,-954,-544
-369,5247,-90,-177,-137,1237,205,-474,-1080,-408
-129,3434,-719,-566,-25,1735,359,-384,-1255,-125
154,3021,-505,-545,71,890,217,-312,-1190,162
126,2337,-273,-245,389,-145,-100,-322,-726,67
49,1864,-239,-141,420,-567,-163,36,520,201
-257,1911,-99,-163,122,-781,5,463,1529,503
-633,1739,111,-46,-14,-850,-16,550,1740,464
-794,1784,-309,-24,-61,-827,-91,590,1647,327
-386,2198,-615,-30,-116,-802,-63,522,1161,190
82,2726,137,348,-60,-737,-67,309,547,39
673,3477,653,497,-195,-764,-310,-69,32,-73
870,4045,748,415,-347,-653,-465,-433,-510,-231
532,4165,689,274,-451,-443,-415,-553,-802,-365
31,3826,487,89,-441,-227,-214,-490,-819,-428
-106,3517,-380,-286,-413,-42,69,-187,-456,-297
5,3525,-676,-294,-163,96,216,165,180,-91
-103,3060,361,222,282,-3,83,181,333,-232
-283,1903,854,401,326,-260,-134,-34,28,-486
-455,789,337,99,18,-141,-206,-374,-583,-697
-443,-225,-623,-182,182,1078,180,-488,-1054,-542
-197,-938,-438,-120,597,2133,681,-281,-1110,-15
-122,-1165,-1243,-636,233,1068,610,73,-397,495
5,-734,-842,-470,-14,266,414,270,273,332
72,-153,-396,-224,-78,-259,61,203,532,-21
-21,343,-175,23,-44,-370,-176,63,508,-191
68,924,310,263,70,-452,-244,-77,227,-92
42,1521,593,290,195,-333,-60,8,-8,88
414,1966,328,86,160,-314,8,158,-93,402
1065,2252,505,82,26,-455,-198,75,-98,564
1031,2077,628,88,-95,-462,-221,103,124,469
573,1338,799,138,-173,-478,-293,111,444,245
204,271,929,387,-158,-675,-402,50,369,-49
172,-669,-106,45,-254,-389,-50,262,336,102
-118,-1562,-662,-371,-394,504,387,355,360,151
-365,-2405,-323,-182,-83,1337,535,92,-96,-199
-405,-3195,-146,7,153,1240,400,-172,-406,-427
-594,-3698,-162,-114,-14,438,147,-299,-424,-469
-632,-3877,-562,-445,-394,-492,-1,-99,-99,-240
-441,-3752,-900,-468,-377,-927,-21,126,38,-28
-140,-3056,-391,-62,-18,-704,-82,102,80,91
44,-2263,103,194,348,-142,-75,91,18,119
-12,-1659,191,213,453,146,-134,-40,-327,-23
6,-914,14,201,426,104,-294,-268,-375,-27
-49,-145,248,275,177,-128,-346,-351,-305,-12
-336,382,1098,586,-154,-465,-452,-569,-773,-169
-558,223,1414,531,-579,-610,-561,-756,-1159,-143
-596,-202,1689,431,-826,-582,-634,-1015,-1320,-301
-461,-898,1643,396,-657,-325,-518,-1124,-1454,-558
-128,-1955,-405,-112,-348,148,11,-401,-413,-318
333,-3884,-1945,-672,-134,464,661,906,1530,387
366,-8104,-446,-282,204,97,463,1024,1519,190
450,-10907,55,-231,410,-364,17,489,634,-94
476,-10686,-1193,-613,369,-413,-7,321,583,168
285,-9964,-1035,-307,509,-56,170,335,907,452
150,-8543,-586,-105,388,154,272,629,1240,603
176,-6367,-526,-122,18,-66,176,743,1134,541
197,-5837,-184,45,-5,-195,-40,454,804,206
115,-6933,-66,112,173,-14,-22,291,633,-30
94,-7211,-3,109,398,251,25,125,341,56
232,-5627,90,105,496,438,52,24,19,469
450,-2851,316,186,351,547,124,-32,-332,714
410,-1142,428,130,123,466,124,-220,-821,421
136,-1215,427,78,130,570,116,-419,-1262,33
-4,-2179,410,46,188,599,39,-587,-1432,-287
242,-3330,-261,-285,-85,247,-110,-458,-867,-67
458,-4473,-458,-410,-345,227,-265,-371,-532,316
497,-5127,63,-216,-288,783,-429,-487,-601,460
538,-5309,-333,-299,-177,503,-286,-151,31,655
459,-5243,-257,-176,169,127,14,135,557,582
-471,-5097,166,85,335,-276,333,593,1478,-363
-857,-4727,128,182,284,-146,383,714,1433,-539
-930,-3985,28,172,173,-60,299,527,699,-748
-491,-2546,-40,49,-112,-228,84,268,246,-528
-215,-1078,-181,-92,-345,-261,8,62,55,-250
-136,261,-275,-168,-479,-190,23,-145,-186,-205
-193,1260,-125,-92,-502,-112,-157,-450,-562,-435
-363,1835,-158,-74,-361,26,-175,-474,-608,-632
-411,2034,-159,-83,-139,-22,-72,-157,33,-471
-342,2063,-37,98,186,-133,-25,147,612,-304
-188,1884,-78,75,317,-182,11,215,339,-217
151,1204,-189,-117,164,-149,114,229,-78,65
183,295,-81,-79,90,-138,33,-40,-536,149
18,-593,115,20,34,-143,-96,-300,-861,84
-96,-1380,223,10,-179,-238,-184,-312,-766,-56
-170,-1893,-53,1,-243,-247,-193,-183,-58,-119
-12,-1593,10,161,-212,-379,-210,-147,244,-127
20,-992,308,242,-162,-377,-190,-117,161,-143
-120,-524,96,59,-99,-104,13,115,229,-94
-28,230,-151,-60,-97,24,156,281,383,52
191,1174,58,99,34,140,153,220,350,97
503,2110,647,268,92,147,148,202,146,254
258,3017,589,16,-190,207,123,52,-201,222
-147,3697,-403,-372,-308,1287,407,-165,-722,35
-247,4084,-1008,-482,-234,2047,789,-218,-1135,-43
-392,4021,-734,-354,-202,1398,638,-379,-1425,-245
-586,3567,-377,-136,-43,251,165,-611,-1542,-629
-369,2790,-54,36,205,-850,-319,-577,-1094,-628
15,1882,-39,51,365,-1133,-431,-146,35,-272
197,1051,69,157,477,-639,-289,232,1125,162
240,197,312,224,329,-357,-123,414,1321,441
373,-514,411,181,119,-561,-195,373,940,436
651,-1021,390,161,15,-840,-321,393,755,472
732,-1043,187,84,-142,-833,-259,537,1107,611
540,-947,393,200,-152,-537,-217,307,969,410
302,-760,532,236,-147,-44,-102,70,619,154
0,-367,694,281,-155,259,20,-21,396,6
-337,130,1047,383,-121,177,41,-81,75,-282
-238,888,789,310,17,3,27,-26,-206,-340
-131,1706,409,155,140,-81,33,17,-218,-185
-317,2146,568,237,85,-93,-96,-222,-391,-347
-456,1987,71,65,4,183,-142,-439,-528,-524
-482,1453,-148,-124,184,672,-37,-288,-176,-371
-275,733,-625,-411,281,820,92,-16,206,-58
157,-201,-1695,-777,193,675,281,208,347,259
312,-1592,-1206,-498,9,195,305,343,361,368
122,-3331,-370,-88,-130,-440,48,207,151,113
224,-4585,-85,-8,-246,-754,-87,226,25,44
213,-5223,-80,-44,-222,-691,-75,328,83,126
31,-5285,-197,-5,27,-377,-34,223,29,10
97,-4964,172,244,275,-132,74,141,-27,38
222,-4632,390,309,244,-10,201,195,67,236
268,-4286,647,324,127,-46,123,149,126,343
151,-3857,956,369,62,-190,-136,2,73,259
124,-3182,430,176,95,-148,-309,-144,-93,111
500,-2022,-935,-258,-3,51,-136,-61,-85,244
606,-978,-840,-391,-210,9,-34,-33,-158,302
286,-242,-334,-311,-354,-94,-82,-111,-416,136
-208,-155,-248,-199,-283,43,-153,-361,-755,-135
-577,-678,-120,-116,-351,119,-267,-561,-773,-291
-678,-1607,-123,-73,-346,323,-233,-545,-644,-371
-516,-2717,-143,-12,-116,546,-101,-459,-659,-363
-330,-3174,-268,-103,92,521,62,-256,-495,-268
-94,-3069,-207,-78,262,194,125,-101,-229,-126
206,-2891,-196,-23,445,-100,166,68,26,151
302,-2715,215,238,588,-167,115,56,-54,248
190,-2558,728,416,476,-57,63,3,-9,199
-44,-2387,958,365,121,-26,3,-6,57,56
-202,-1567,568,168,-187,-114,-34,88,227,-4
95,1229,-568,-174,-317,-299,-48,254,489,231
378,3011,-702,-246,-276,-373,49,387,619,416
165,3095,-204,-60,-66,-182,73,164,184,194
18,3820,-73,31,156,155,99,-37,-188,-41
106,4698,5,114,271,464,195,0,-280,-105
129,4669,43,148,193,450,151,-75,-571,-154
30,4453,-17,33,-99,185,-22,-162,-456,-196
-79,3980,-176,-182,-385,29,-65,-22,322,-50
-102,2906,-289,-257,-427,-12,31,24,564,127
-103,1750,-117,-148,-187,495,161,-88,158,206
-237,729,125,22,238,1324,327,2,-32,296
-189,-219,38,16,441,1071,424,189,72,424
52,-979,162,21,295,207,253,68,-42,148
123,-1572,354,10,-64,-253,-102,-169,-11,-277
-143,-1849,183,-137,-327,-124,-238,-248,104,-472
-104,-1575,-299,-303,-229,174,-143,-114,179,-325
179,-921,-279,-216,21,27,-211,-149,-101,-169
133,-312,-354,-147,136,-433,-226,7,-239,-37
199,491,-288,-50,93,-804,-182,282,-79,242
241,1332,250,215,120,-835,-265,238,94,217
-70,2120,578,474,336,-447,-123,218,270,-137
-483,2690,593,559,372,-188,45,265,371,-515
-208,3107,180,302,38,-353,-26,216,563,-382
198,3307,-15,67,-334,-551,-46,264,670,-67
173,2865,120,53,-484,-659,-59,226,391,66
85,1805,-112,-21,-372,-475,-11,125,-21,246
95,749,-271,-105,-285,-289,0,-50,-542,402
73,-140,-125,-85,-297,-288,-52,-208,-865,377
-89,-1091,150,28,-263,-279,-135,-354,-967,217
-80,-1964,174,68,-185,-176,-147,-225,-139,223
158,-1698,140,39,-75,73,69,235,1098,402
253,-1078,-127,-47,115,395,373,491,1103,183
347,-643,-357,-127,211,509,395,351,439,-199
345,-17,-340,-205,19,520,189,108,46,-301
68,712,-103,-121,-113,524,106,-52,-304,-373
-409,1298,73,-16,-181,367,91,-276,-780,-636
-671,1909,-7,-15,-196,394,116,-421,-804,-759
-607,2487,-148,-60,-197,407,165,-289,-307,-538
-439,2830,-178,-120,-301,97,94,-55,203,-274
-306,2740,5,-82,-321,-254,-90,1,137,-132
-202,2385,91,-3,-168,-506,-344,-255,-264,-49
-91,1457,-256,-134,70,-397,-285,-244,-272,45
21,226,-402,-170,290,-6,-162,-176,-30,150
99,-851,79,-3,350,310,-49,-123,335,265
143,-1703,401,66,276,422,66,-78,259,285
-21,-2625,318,182,329,435,148,60,4,133
-245,-3427,339,302,319,386,179,200,-32,-158
-176,-3567,344,194,81,250,150,204,217,-207
-87,-3413,-90,-25,86,204,183,213,428,25
-205,-2962,-602,-136,237,179,258,390,689,223
-62,-2163,-532,-220,202,59,196,466,692,273
235,-1208,-81,-36,283,-9,-7,187,237,91
183,-555,355,359,471,41,-71,3,-72,-72
125,188,578,493,358,-83,-33,50,49,4
200,1100,845,450,127,-229,-91,-26,24,37
243,1495,1116,377,-90,-318,-108,-83,-130,54
445,1264,434,-39,-329,-458,-99,-21,-154,258
493,721,-145,-247,-297,-354,-158,-113,-285,277
267,56,42,-131,-217,-234,-227,-339,-556,79
89,-609,-260,-96,-99,65,-99,-380,-624,-35
-10,-1528,-510,-156,16,375,108,-287,-408,-30
-201,-2588,-97,-99,13,344,117,-172,-78,-20
-469,-3540,0,-74,-77,167,77,4,116,-86
-458,-3815,-110,-111,-137,-97,79,157,131,-171
-183,-3617,-293,-223,-217,-255,-36,19,-27,-158
90,-3271,-567,-348,-306,-276,-74,-40,0,-46
190,-1744,-428,-284,-243,-341,-84,70,55,39
319,1690,-287,-218,-112,-222,-38,126,7,154
440,3801,-300,-239,-141,34,118,174,2,248
191,4237,-270,-156,-166,126,125,53,-173,114
-289,4392,-71,71,-47,226,44,-191,-590,-302
-618,4358,19,88,-116,256,-11,-270,-641,-521
-611,4150,90,66,-190,-99,-241,-354,-377,-496
-314,3844,436,174,-21,-379,-364,-283,-152,-364
-42,3326,792,290,413,-34,-119,-58,-187,-267
-52,2365,840,436,867,366,23,-160,-334,-320
56,1280,334,323,839,352,-40,-263,-207,-131
338,376,-669,21,606,542,114,82,136,274
292,-586,-606,-105,215,453,154,461,502,479
140,-1405,-41,9,-80,2,-34,261,579,441
70,-1684,229,123,-133,-245,-138,-2,275,286
-99,-1767,131,108,-24,-251,-109,-45,-105,9
-174,-1557,-127,-11,-15,-315,-86,-103,-463,-110
-56,-908,-249,-84,112,-243,-66,-103,-481,-34
105,-128,-213,-72,311,37,26,-37,-344,98
315,774,-131,-92,230,175,40,15,-135,242
395,1887,102,-55,-47,-39,-110,113,473,303
511,2830,257,-22,-215,-233,-158,293,1014,296
597,3344,451,43,-255,-324,-193,246,1088,318
260,3211,672,149,-269,-309,-132,156,761,150
-340,2645,485,192,-187,-136,62,137,250,-157
-598,1890,-379,-37,-67,189,291,237,119,-190
-239,1007,-654,-201,-119,283,373,276,208,-53
159,5,-352,-194,-258,164,268,201,192,34
121,-956,-109,-94,-293,90,78,14,-36,69
-117,-1803,-245,-129,-258,-28,-103,-231,-392,4
-78,-2372,-278,-115,-99,-181,-214,-431,-762,-80
137,-2463,-263,-99,90,-157,-146,-395,-905,-30
160,-2282,-354,-131,338,117,101,-68,-536,117
-184,-1973,-90,-20,587,398,288,265,134,24
-368,-1332,333,172,493,419,220,302,398,-260
-178,-408,517,272,254,184,33,104,271,-361
4,691,567,330,186,5,-19,38,189,-278
145,1686,448,259,31,-166,-41,-64,-274,40
97,2435,238,57,-303,-343,-170,-338,-863,136
136,2818,54,-216,-676,-466,-287,-487,-1051,113
235,2706,-201,-367,-685,-328,-255,-435,-586,163
-29,2170,-181,-319,-509,-203,-131,-110,469,154
-209,1221,210,-164,-311,-140,51,311,1085,62
80,317,-100,-262,-183,-18,226,520,1096,153
252,-424,-326,-213,-151,13,203,344,834,261
-117,-1258,-426,-182,-245,-58,117,96,459,109
-528,-2097,-1032,-332,-225,199,223,-14,60,-175
-823,-2728,-616,-130,-39,431,215,-188,-407,-588
-782,-2944,-43,100,110,325,47,-355,-728,-584
-541,-2641,69,141,229,206,72,-283,-819,-394
-316,-1880,-59,38,385,175,209,-21,-663,-183
-218,-808,-201,17,550,417,315,168,-498,-119
33,375,-280,-72,314,472,218,151,-136,75
179,993,-87,-6,152,365,89,171,169,255
152,1476,323,230,104,14,-85,82,-12,59
203,2013,491,212,-149,-534,-367,35,147,87
243,1969,328,73,-318,-601,-463,53,427,246
259,1534,118,39,-41,-132,-293,16,290,291
331,994,41,190,361,222,-144,-171,-244,203
432,305,54,395,588,303,-67,-305,-477,95
422,-596,346,462,417,-66,-141,-215,-84,55
351,-1350,437,343,49,-505,-157,213,686,210
332,-1987,472,294,-17,-521,-82,384,806,335
249,-2620,564,212,-14,-444,-59,200,411,216
-18,-2793,379,132,24,-322,-26,107,263,-82
114,-2400,-363,-89,9,-103,131,252,502,-86
326,-1733,-365,-149,-142,-82,129,298,623,88
132,-211,-36,-86,-272,-173,34,193,453,43
-192,5503,0,-26,-184,-77,91,77,125,-171
-251,8511,37,7,-109,116,87,-18,-100,-300
-176,7024,104,-7,-84,504,92,-47,-143,-266
-90,8948,159,-22,-131,691,55,-112,-160,-176
-16,7751,81,-9,-131,508,47,-168,-109,-182
-37,7956,-222,-83,-96,216,73,-140,-97,-220
-258,6986,44,-83,-81,-95,10,-138,-110,-269
-364,5865,677,72,-130,-413,-135,-199,-194,-242
-173,4812,877,105,-195,-566,-204,-175,-197,1
-176,3326,633,40,-205,-373,-231,-289,-393,-39
-337,2455,-213,-196,-212,24,-57,-308,-472,-182
-280,1150,-1170,-401,-124,476,332,-33,-213,-92
-209,755,-1229,-366,-35,534,363,-25,-199,-190
-214,506,-750,-155,80,319,188,-152,-255,-339
-186,100,-227,-16,40,49,80,-35,-100,-238
-34,235,63,-18,16,-3,61,86,33,-50
32,666,148,72,372,332,57,46,7,-63
122,991,-91,56,610,804,122,76,-70,-18
330,1668,-370,-104,391,523,58,102,-85,210
438,2537,-140,-49,254,21,-60,16,-256,318
540,2991,-34,-53,200,-409,-170,-69,-405,502
510,2952,-40,-56,90,-664,-247,-63,-349,635
237,2564,-73,-5,100,-535,-266,-38,-189,592
-126,1855,-47,33,114,-231,-196,-48,47,290
-176,864,50,99,57,-30,-70,50,427,123
-88,-67,146,117,52,231,151,192,472,-49
-78,-974,98,56,-14,229,300,289,427,-202
-89,-1812,148,18,-175,21,262,364,782,-118
52,-2387,338,68,-191,-39,113,322,817,-41
24,-2717,347,106,-124,-5,34,123,356,-111
-36,-2688,285,105,-130,-141,-150,-189,-89,-209
0,-2433,125,36,-176,-286,-292,-364,-304,-233
86,-1950,-260,-118,-185,-252,-167,-134,-183,-67
270,-1225,-322,-199,-176,-174,-35,189,64,191
367,-496,-112,-143,-67,-119,-20,263,187,301
231,255,72,51,75,-195,-154,174,226,236
114,1028,251,170,64,-295,-207,123,193,175
-33,1431,142,91,-41,-210,-141,66,-15,62
-98,1368,195,112,-46,-56,-150,-104,-341,-108
-38,935,225,105,-8,194,-93,-212,-588,-114
7,89,189,72,-13,301,-25,-352,-815,-94
-30,-1047,133,38,-70,281,32,-387,-936,-153
-61,-2149,47,-32,-138,127,21,-228,-794,-136
24,-3159,104,-37,-224,-178,-82,-161,-582,41
51,-4039,250,36,-217,-362,-151,-178,-336,118
32,-4667,532,130,-124,-296,-205,-251,-121,197
-76,-4824,563,24,-190,-99,-204,-316,64,280
-112,-4601,-280,-283,-174,186,4,-105,205,269
-65,-4116,-905,-500,-149,231,155,93,216,165
-262,-3431,-547,-274,-53,72,135,114,174,-115
-640,-2790,-245,29,152,-74,47,188,363,-359
-479,-1792,-51,203,322,-77,-50,196,669,-421
62,-521,57,219,415,38,-101,72,670,-345
145,377,60,126,268,347,-36,-24,461,-291
-86,788,-45,13,78,664,81,-91,218,-336
-176,799,-36,49,63,557,153,-46,164,-288
-270,461,91,69,-34,132,224,99,59,-200
-164,-221,42,-2,-138,-232,216,204,-80,-54
149,-1001,54,-26,-94,-347,171,169,-118,116
278,-1728,162,47,92,-266,188,128,-151,209
289,-2350,68,43,145,-224,160,103,-142,326
167,-2785,-97,-19,54,-218,39,73,-42,218
105,-2852,-80,-54,-105,-280,-96,0,33,85
52,-2550,-311,-179,-251,-349,-137,14,6,-4
16,-2116,-505,-271,-225,-249,-56,140,168,88
46,-1561,-63,-57,22,32,42,243,462,223
-12,-835,239,237,290,343,91,202,298,159
-73,-85,183,245,242,370,144,109,12,103
-49,748,-6,36,37,202,220,105,66,151
23,1819,-199,-112,-36,29,177,68,64,81
37,2610,-140,-86,18,28,105,-95,-237,-136
-46,2683,-185,-140,-7,247,184,-129,-462,-238
27,2453,-409,-339,-160,477,227,-18,-452,-117
78,1916,-341,-336,-223,421,133,-27,-487,-57
27,954,-100,-97,-58,122,-74,-264,-667,-72
182,116,-57,-16,41,-223,-268,-414,-574,122
277,-617,-34,-23,76,-270,-295,-281,-83,291
160,-1345,-83,-80,30,-210,-179,-43,234,278
37,-1895,-183,-112,-9,-45,-12,36,133,197
87,-2044,-100,-29,-2,130,-16,-15,16,84
79,-1891,91,39,-13,250,-123,-155,-12,-162
-112,-1565,387,164,-5,311,-91,-242,-81,-333
-420,-933,624,296,42,326,-134,-479,-550,-540
-653,-204,651,319,-11,119,-241,-668,-938,-614
-680,558,422,137,-200,-289,-264,-464,-778,-210
-597,1502,51,-38,-267,-393,-196,-45,-606,240
-349,2375,-34,-5,-142,-294,-133,251,-183,491
15,2893,113,55,-63,-318,-100,278,164,540
241,2953,-330,-59,29,-222,16,371,708,482
513,2770,-508,-70,190,-93,105,507,1415,490
574,2162,187,108,295,-75,53,435,1565,293
457,1221,243,218,381,13,111,455,1392,30
400,253,-171,105,141,-59,194,560,1088,-175
642,-445,-27,42,-190,-326,12,406,735,-34
699,-1178,111,42,-219,-347,-67,245,531,215
514,-1824,67,21,-122,-210,6,183,326,284
170,-2101,43,42,-35,-72,56,155,173,211
-98,-2072,24,78,20,145,103,109,29,57
-278,-1791,77,109,69,365,140,44,-136,-135
-588,-1223,81,77,8,422,136,-15,-216,-368
-559,-520,6,-19,-143,327,114,-59,-163,-275
-237,247,-14,-59,-253,128,39,-89,-241,-142
-13,1107,-10,-34,-294,-166,-140,-225,-432,-172
-28,1763,-71,-5,-138,-308,-226,-315,-558,-264
-140,1940,-149,-6,99,-186,-89,-244,-525,-278
-181,1636,13,81,224,-38,38,-152,-447,-202
-166,972,155,150,282,80,87,-38,-262,-76
-80,-11,-32,32,157,75,50,139,172,187
-28,-955,-51,-6,57,53,0,138,272,227
10,-1725,139,64,-9,48,30,46,9,109
-94,-2491,135,10,-45,42,102,81,-5,30
-342,-3282,10,-17,9,20,79,49,-24,-133
-353,-3736,-48,20,38,44,-8,-137,-201,-304
-55,-3512,-75,-26,-40,58,-87,-313,-410,-281
180,-3012,51,-21,-117,14,-118,-424,-677,-109
227,-2277,-31,-69,-121,133,-8,-354,-654,143
209,-1355,-67,-123,-42,300,164,-168,-427,301
158,-465,21,-138,-91,226,95,-178,-359,107
202,573,57,-167,-226,164,-60,-220,-130,-110
157,1655,185,-73,-162,225,-39,-190,-93,-268
-66,2412,212,138,130,421,111,-141,-240,-405
-331,2559,207,277,411,544,260,-38,-330,-502
-297,2360,103,103,290,302,253,34,-370,-392
-154,1763,-171,-212,0,14,192,255,126,-87
-103,801,-457,-404,-264,-185,27,354,761,129
53,-162,-835,-440,-327,-230,58,462,1124,298
104,-1123,-370,-175,-176,-92,98,302,646,196
62,-1833,59,58,-18,210,90,89,204,90
89,-2424,227,138,76,219,57,29,103,114
32,-2646,209,81,198,87,-19,-78,-68,30
-68,-2460,-218,-58,305,40,-99,-232,-265,-139
32,-2128,-726,-187,169,-223,-188,-231,-130,-16
51,-1640,-487,-127,44,-342,-193,-93,179,175
72,-967,-176,-39,-31,-305,-72,169,233,220
290,-83,-101,-43,-182,-379,-62,233,193,298
363,774,-65,10,-111,-310,-68,129,109,275
155,1450,156,153,82,-202,-1,52,-70,226
82,1807,318,221,144,-175,-24,-106,-297,311
97,1687,382,185,45,-296,-75,-157,-423,424
-123,1207,519,196,-39,-345,-41,-32,-539,185
-240,385,431,112,-171,-336,-66,29,-419,-127
-130,-569,144,41,-183,-290,-125,1,-50,-292
110,-1360,110,50,-141,-190,-107,42,298,-236
194,-2168,271,170,-53,-2,-5,91,333,-184
161,-2912,269,192,-63,89,58,86,185,-110
126,-3344,-68,9,-194,124,55,5,9,-89
204,-3261,-252,-182,-345,-36,-61,-122,-53,-29
254,-2887,-161,-215,-331,-240,-167,-217,-211,120
147,-2262,-146,-217,-173,-231,-148,-221,-378,177
-3,-1330,-112,-165,47,-130,-60,-80,-296,145
28,-591,-92,-120,288,-44,-37,85,203,207
-9,-8,-141,-60,453,163,-38,225,861,186
-183,954,125,148,446,300,-57,212,915,-112
-82,1595,294,226,233,239,-2,186,737,-205
0,1838,234,146,13,113,56,139,400,-230
-196,1615,49,11,-64,57,83,75,91,-364
-324,1077,-24,-126,-211,-91,55,30,-55,-365
-255,134,-140,-199,-243,-100,130,130,2,-197
-171,-811,-211,-172,-143,-54,136,191,-5,-86
-103,-1637,-142,-80,-16,-68,59,162,-101,-88
-69,-2450,-17,-32,11,-36,23,108,-166,-119
97,-3254,0,-75,-19,102,33,85,-70,6
269,-3696,-42,-138,-74,103,13,38,64,163
213,-3565,37,-81,-51,54,7,-78,41,111
-30,-3261,138,111,115,119,36,-161,-156,-89
-148,-2524,83,108,128,118,34,-113,-209,-180
-92,-1557,3,-31,-40,-40,-81,-158,-370,-173
-153,-666,-58,-45,-72,-91,-132,-267,-677,-194
-195,351,-106,-81,-105,-113,-93,-276,-767,-138
-55,1438,62,-53,-140,-135,-74,-304,-704,-22
-20,2315,235,-1,-168,23,-114,-252,-258,-111
-82,1959,-251,-18,-72,223,54,-67,81,-196
-71,1476,-566,-50,80,580,331,74,176,-136
-219,577,-392,-25,286,900,466,50,-141,-243
-395,-442,-113,64,412,956,444,-40,-207,-401
-495,-1351,139,175,384,722,327,-53,-37,-423
-648,-2173,307,236,295,462,203,-63,-45,-504
-461,-2687,347,179,63,85,27,-87,42,-373
54,-2418,161,-43,-192,-341,-108,-6,192,12
450,-1413,-101,-140,-68,-352,-152,-81,2,346
601,-530,65,8,180,-92,-125,-103,-14,476
533,99,-143,-16,112,-100,-125,70,206,467
215,820,-430,-75,20,-220,-123,199,7,226
-59,1698,-280,-23,48,11,-144,30,-286,-57
-89,2582,-147,67,104,264,-57,12,-101,52
46,3380,-128,82,19,26,-35,25,-138,133
145,3714,-134,40,54,-229,-3,-29,-385,36
272,3583,-81,-26,87,-362,-52,107,128,151
340,3202,11,-36,-50,-608,-220,270,829,356
266,2464,329,152,-130,-677,-308,332,1059,309
61,1478,467,177,-305,-669,-248,415,1171,211
-57,488,378,94,-338,-586,-163,355,973,103
-34,-346,246,100,-120,-384,-118,140,492,24
80,-1066,102,110,62,-187,-26,119,306,100
146,-1639,80,67,167,5,86,205,274,200
169,-1773,-20,-41,164,215,112,177,212,293
74,-1619,116,32,176,355,109,61,58,247
-106,-1205,84,10,76,346,126,7,-85,94
-96,-508,-123,-78,-37,255,35,-86,-170,47
-38,239,34,15,29,229,-9,-98,-130,102
-230,971,50,39,99,176,67,-34,-186,29
-392,1675,-152,-36,118,157,145,-50,-316,-157
-305,2250,-187,-81,63,131,99,-175,-555,-273
-232,2324,-197,-141,-60,74,86,-354,-925,-228
-202,2062,-299,-232,-228,96,56,-494,-1153,-66
39,1627,-220,-242,-335,94,-91,-616,-1198,42
198,797,27,-115,-309,-6,-201,-593,-1031,-9
131,-87,17,-50,-211,-145,-168,-357,-532,-187
153,-793,54,16,-75,-138,-28,70,329,-99
236,-1360,304,68,10,-114,19,343,717,148
123,-1858,307,69,91,-182,-35,298,596,169
-145,-2062,285,197,269,-135,-61,205,333,-79
-126,-1759,221,252,338,-77,-90,198,481,-8
-67,-1280,376,263,270,-97,-114,195,584,126
87,-547,153,115,199,-53,-40,208,431,250
341,276,-451,-75,203,85,155,317,444,471
336,1117,-194,12,171,50,85,162,180,368
176,2045,-46,47,18,10,11,71,95,198
-24,2851,-158,-77,-168,-4,10,-2,-67,-33
-12,3414,-178,-145,-253,11,-5,-157,-293,-225
48,3419,-243,-205,-280,123,29,-53,31,-6
27,2943,-206,-180,-189,254,90,30,60,167
-27,2084,43,-57,-63,266,140,-9,-199,101
-111,1037,325,45,-12,247,143,-53,-393,-117
-238,90,292,-23,-63,366,140,-46,-266,-291
-275,-793,-128,-88,50,494,190,-83,-180,-247
-63,-1428,-282,-54,193,413,220,-131,-288,-177
17,-1915,107,94,184,117,108,-173,-408,-201
-114,-2099,297,142,76,-221,-32,-157,-387,-224
-166,-2015,19,-37,-83,-571,-91,7,-184,-133
-59,-1656,14,-10,20,-609,-187,16,-96,27
-7,-1026,134,82,185,-413,-236,-29,64,109
-78,-339,190,97,206,-217,-190,49,450,160
-198,513,170,59,30,-131,-178,98,517,225
-158,1515,13,-7,-138,110,-175,53,432,260
-11,2304,-222,-69,-149,358,-24,169,499,258
40,2518,-218,-89,-156,349,26,231,405,135
43,2335,-176,-117,-199,111,-10,180,-38,-15
-86,1931,-212,-166,-196,-173,-19,76,-311,24
-190,1308,-198,-169,-121,-357,-45,-79,-390,-14
-246,318,-138,-87,82,-155,-67,-267,-584,-236
-235,-787,9,69,329,392,-11,-479,-846,-407
-51,-1459,93,38,259,871,176,-366,-494,-251
185,-2002,-3,-88,35,885,334,-130,-210,-147
230,-2508,-98,-70,56,587,331,-154,-491,-328
274,-2472,-43,-1,182,132,153,-107,-289,-246
336,-2166,-46,-94,58,-387,-7,236,619,189
301,-1648,-144,-157,-50,-573,-113,320,896,433
186,-911,-347,-199,-97,-463,-130,272,846,607
-96,-262,-121,-43,-41,-367,-69,345,883,545
-113,624,150,123,-63,-440,-126,343,717,310
199,1713,288,160,-185,-566,-232,241,450,139
274,2395,382,187,-192,-515,-212,151,187,-11
131,2408,344,172,-157,-358,-135,51,30,-107
16,2107,247,142,-119,-209,-147,-140,-138,-222
38,1510,236,104,-102,-88,-116,-243,-227,-245
-49,461,275,147,-48,108,-11,-156,-113,-149
-169,-494,217,154,-23,245,57,-83,-6,-119
-95,-1206,157,79,-87,167,3,-197,-102,-170
-62,-1872,84,-17,-148,74,-14,-229,-188,-215
-101,-2460,-147,-90,-114,86,83,-151,-262,-236
-66,-2622,-386,-219,-129,14,159,-37,-232,-124
29,-2345,-278,-214,-44,-44,146,-6,-300,20
168,-1696,-115,-101,131,24,120,-9,-291,177
174,-822,-61,35,302,101,51,-62,-280,190
97,-33,-315,-67,285,157,71,133,-1,234
42,865,-373,-158,113,21,-45,231,277,236
141,1934,157,110,222,-30,-188,2,4,125
200,2903,554,315,307,2,-204,-160,-372,-26
114,3364,482,229,108,-94,-244,-234,-507,-94
67,3239,37,32,-133,-138,-190,-63,-77,127
138,2873,-198,-46,-180,-54,-54,52,97,312
3,2052,-145,-19,-111,-8,-11,70,130,251
-278,90,-60,-29,-133,67,111,270,840,154
-48,-564,60,37,-68,316,157,116,380,-126
97,-1096,8,42,-22,524,117,-91,-47,-161
-98,-1631,-124,-23,-21,515,137,-144,-233,-120
-470,-1841,-125,-61,87,474,175,-181,-428,-305
-577,-1714,-6,-74,29,234,53,-211,-446,-363
-434,-1305,96,-53,-38,-70,-123,-209,-350,-222
-144,-661,-14,-15,130,-72,-95,-120,-273,-76
282,64,-268,-68,204,-18,52,64,-163,176
486,920,-278,-179,64,4,147,176,-89,356
326,1834,-265,-238,-40,72,183,155,-154,235
10,2477,-193,-140,40,114,124,62,-146,39
-408,2348,77,176,175,193,125,299,812,-166
-244,1734,124,157,130,47,125,343,859,-59
-82,726,6,107,62,-73,79,226,497,-49
48,-325,-41,36,11,-138,13,152,218,-7
80,-1257,17,28,-38,-343,-159,23,33,20
144,-2099,127,54,-115,-560,-292,-54,-42,104
243,-3427,164,64,-72,-390,-290,-59,-81,292
242,-3352,158,75,11,-242,-179,6,-29,349
140,-3022,124,83,65,-82,-106,17,-28,294
0,-2443,122,88,44,1,-106,-33,38,173
-42,-1538,180,126,54,0,-41,-83,-34,-21
54,-435,141,93,59,-22,89,-30,-130,-151
162,314,4,-52,-66,-104,131,137,-33,-94
162,1033,-1,-114,-178,-170,64,87,-8,-50
140,1688,71,-106,-253,-210,-10,-77,-189,-42
42,1590,215,-70,-254,-207,-45,-178,-406,-72
-53,1030,237,26,-175,-82,-110,-365,-724,-190
-89,426,51,68,-88,237,-104,-459,-893,-253
35,-447,-5,39,-104,348,-119,-524,-1080,-143
92,-1545,-103,-51,-120,274,-142,-557,-983,133
167,-2418,-484,-289,-237,157,-64,-316,-207,564
211,-3259,-592,-441,-356,-47,-1,-139,128,650
126,-4026,-449,-381,-260,-155,57,-102,-50,353
-189,-4204,-356,-262,-56,-161,52,51,292,83
-501,-4032,-239,-80,222,-90,89,276,859,-274
-474,-3577,-106,24,349,34,105,406,1178,-538
-227,-2585,50,121,435,404,140,445,1151,-431
-61,-1767,154,239,529,577,184,357,706,-297
-124,-2599,43,189,413,414,201,351,405,-200
-166,-2685,40,156,268,217,193,401,263,-194
-58,-1434,38,126,53,-154,105,436,302,-150
-37,-643,130,105,0,-367,2,345,278,-123
24,-522,199,67,83,-276,-43,169,166,-35
121,-770,150,18,73,-165,-11,61,134,91
161,-1491,110,-7,-39,-171,-20,-4,34,126
170,-2289,263,110,-70,-237,-106,-138,-172,35
202,-2656,346,159,-98,-220,-77,-137,-248,42
187,-2676,422,149,-89,-130,-26,-78,-194,87
78,-2551,389,94,-104,-100,-75,-75,-169,81
-96,-2397,30,-4,-92,5,-95,-101,-271,30
-61,-2252,-500,-215,-96,157,-9,-40,-337,75
9,-2101,-474,-196,-59,252,27,-68,-409,71
3,-1940,-198,-71,11,179,1,-124,-402,-30
6,-1707,-96,-41,5,26,-34,-105,-76,-32
-41,-1165,-85,-70,-23,36,15,4,379,-7
-145,-151,-21,-17,-21,202,150,84,488,-54
-200,1079,-52,27,-56,163,175,69,306,-123
-169,2009,-59,18,-111,24,94,-29,67,-136
-305,2244,-87,-62,-196,-33,69,-86,-124,-189
-402,2026,-83,-91,-216,190,166,-88,-284,-265
-340,1512,-35,-30,-116,435,245,-117,-433,-293
-179,579,-56,1,3,417,235,-179,-568,-221
-46,-571,-56,-17,64,150,105,-220,-613,-128
4,-1564,-59,-116,-57,-217,-21,-112,-382,-62
-76,-1980,-64,-176,-205,-537,-142,-76,-128,-84
-127,-1943,33,4,-69,-534,-218,-108,-30,-140
-7,-1775,80,184,235,-224,-179,-40,164,-49
117,-1699,159,309,488,145,-43,77,218,53
188,-1636,173,330,464,232,68,145,83,103
250,-1457,216,321,252,63,17,72,-108,118
290,-1027,142,195,37,-128,-71,-48,-258,69
235,-230,-5,3,-111,-229,-126,-119,-246,-25
90,799,-17,-103,-241,-325,-174,-32,150,8
79,1791,-67,-61,-230,-298,-202,89,551,125
106,2374,-66,23,-142,-200,-179,131,585,146
144,2469,146,128,-58,-172,-165,48,406,126
206,2294,243,109,-70,-146,-131,5,255,207
189,1656,190,25,-51,-30,-81,-34,115,234
168,621,29,-81,-47,118,7,3,103,205
135,-315,-160,-150,-116,146,12,44,125,178
62,-1182,-321,-178,-176,51,-17,35,148,138
-63,-1711,-169,-77,-120,28,34,102,279,108
-171,-1841,91,54,-24,34,87,118,271,122
-236,-1741,200,48,-34,22,51,51,209,111
-239,-1573,163,-12,-99,109,45,-28,183,90
-228,-1210,48,-8,-86,162,45,-180,-2,-60
-273,-427,34,73,-4,123,78,-213,-244,-236
-177,577,-62,-10,-39,-25,108,-61,-291,-318
154,1791,-160,-121,-125,-186,47,-57,-289,-220
357,2958,-375,-211,-109,-324,-64,-114,-377,-83
234,3708,-412,-204,142,-163,-53,-97,-356,-66
93,3929,-268,-136,369,95,12,25,-104,-2
-10,3683,-134,-72,374,309,87,88,43,-6
-180,3128,-122,-112,50,263,90,88,159,-67
-128,2389,43,-43,-105,288,77,21,67,44
64,1476,187,36,-47,306,87,-113,-312,189
11,470,197,80,86,324,111,-175,-627,34
-206,-417,166,115,224,480,136,-188,-827,-260
-352,-1150,47,41,140,384,101,-123,-605,-360
-211,-1577,-80,-21,11,107,122,190,224,-120
-6,-1335,-81,19,18,-17,205,446,854,121
78,-799,-28,26,-2,-189,164,378,885,172
135,-20,108,59,-25,-412,5,209,708,239
172,935,286,175,37,-446,-67,69,372,235
130,1762,413,172,-42,-424,-79,33,186,156
122,2634,238,54,-152,-347,-119,23,124,159
139,3512,-126,-34,-178,-219,-136,-40,-28,176
63,4138,-152,4,-160,-231,-214,-199,-252,83
29,4200,-85,-12,-163,-315,-259,-299,-410,33
49,3842,8,-10,-92,-283,-165,-231,-377,72
35,3126,60,-39,0,-180,-17,-48,-106,151
84,2077,-16,-45,95,-31,95,140,181,230
184,970,-76,0,116,63,106,249,363,208
175,-108,-74,8,1,21,62,235,301,131
100,-1008,-159,-66,-86,-73,3,115,233,32
34,-1588,-92,-14,-6,-105,-69,-19,196,-117
-74,-1691,185,137,53,-44,-81,-116,54,-206
-144,-1501,278,166,42,160,62,-106,-53,-207
-68,-1135,220,114,66,417,164,-83,-143,-124
-148,-441,270,106,84,407,79,-181,-372,-118
-280,388,160,26,-28,280,-65,-329,-663,-214
-304,1239,-308,-185,-186,245,-43,-191,-493,-169
-212,2241,-432,-180,-143,318,58,16,-339,-109
-227,3191,-175,2,-1,281,-1,-55,-500,-325
-66,3760,-76,36,24,73,-126,-110,-136,-354
104,3749,-1,-17,81,-13,-93,32,322,-166
214,3531,-163,-51,167,-58,28,137,232,14
255,2900,-317,-27,186,-130,18,106,97,173
105,1924,-54,67,219,-157,-35,55,26,129
110,1143,131,102,204,-173,-80,-43,-224,39
286,547,364,146,133,-274,-145,-137,-410,61
272,-82,312,96,-86,-386,-144,-78,-233,140
214,-559,-139,-77,-261,-430,-115,26,152,190
230,-560,-242,-137,-143,-351,-99,125,606,280
359,-220,-96,-64,85,-191,-39,149,547,357
304,331,-27,4,156,-59,-21,150,467,319
147,1105,-66,-16,-19,-33,-12,208,556,290
55,1922,45,-31,-141,-14,18,181,354,210
-84,2775,107,25,-48,89,88,136,211,47
-290,3639,71,85,84,308,157,91,149,-117
-484,4359,101,132,181,459,190,20,34,-259
-373,4850,102,38,7,217,146,-8,-522,-270
-219,4487,149,-37,-98,88,-5,-93,-685,-237
-197,3634,225,-37,-52,163,-67,-228,-676,-202
-151,2636,72,-60,-39,131,-74,-235,-423,-173
2,1760,-25,-20,20,131,74,64,219,-55
5,941,-19,-14,-2,121,227,335,594,35
-71,247,-192,-129,-92,-4,177,295,626,56
-156,-135,-293,-147,-36,-38,124,192,544,52
-230,-137,-110,4,106,58,109,80,277,-57
-139,138,80,103,142,49,64,-21,-23,-137
-67,678,94,117,90,10,67,-64,-227,-188
4,1402,119,123,-44,-63,13,-98,-230,-56
19,2168,113,77,-104,97,23,-73,-172,96
-37,3031,117,39,-87,387,-18,-153,-293,40
-61,3878,56,-44,-144,494,-77,-314,-501,-9
-125,4377,-286,-146,-159,451,-40,-429,-601,-17
-177,4340,-365,-116,0,351,-2,-392,-538,-121
-206,3963,-242,-64,181,269,31,-160,-297,-247
-168,3215,-241,-47,263,208,120,107,-97,-263
-59,2192,-85,-9,217,221,207,172,30,-126
65,1232,55,8,99,244,179,254,414,87
94,319,129,37,41,32,38,208,384,99
144,-516,107,41,75,-265,-96,86,115,90
195,-1138,99,74,114,-424,-253,3,-16,66
186,-1369,244,169,79,-522,-335,-61,-85,21
126,-1315,237,158,44,-429,-195,-57,-176,-47
192,-967,-5,16,-21,-308,-59,-54,-257,-12
316,-230,-16,9,-116,-369,-143,-41,-98,131
385,603,248,68,-220,-526,-290,-141,-130,211
360,1433,260,37,-225,-624,-377,-224,-263,255
268,2366,149,-44,-190,-589,-374,-257,-352,265
167,3181,-156,-221,-248,-462,-322,-168,49,294
111,3585,-398,-270,-198,-278,-200,70,628,347
-27,3454,-194,-88,-51,-85,-10,193,479,141
-191,2982,118,122,90,28,60,179,152,-22
-259,2154,347,263,167,57,45,270,288,83
-202,1108,351,221,164,25,34,291,412,184
7,158,145,159,238,103,90,256,447,225
138,-586,-7,83,204,138,188,295,631,288
129,-1041,-91,-4,119,105,215,319,680,204
210,-1288,-77,-25,57,59,178,246,458,33
174,-1302,69,17,-13,-34,75,141,177,-159
135,-1088,196,91,15,27,15,6,-103,-302
-15,-726,206,90,16,151,-21,-100,-249,-325
-183,-145,168,60,-41,114,-74,-208,-427,-263
-180,504,-36,12,-24,72,-77,-254,-479,-192
-182,1313,-214,-27,72,148,2,-119,-157,-70
-134,2239,-103,-29,76,112,19,17,226,49
-18,2934,-38,-26,10,14,17,-22,135,0
-84,3022,95,-42,-49,46,45,-109,-160,-177
-273,2760,49,-118,-125,103,16,-191,-359,-334
-283,2313,-258,-208,-73,342,109,-207,-539,-399
-159,1486,-458,-254,-51,475,275,-74,-600,-272
-54,586,-365,-230,-143,487,263,-65,-591,-131
-48,-199,-254,-163,-103,575,204,5,-189,9
-39,-849,-120,-113,-55,536,142,97,275,60
-128,-1425,86,-29,-23,432,108,60,202,-130
-187,-1716,279,122,110,172,12,98,280,-168
-107,-1664,409,222,202,-188,-128,71,293,-15
-42,-1428,517,263,350,-258,-97,58,122,78
1,-828,586,228,318,-258,-89,-6,-89,51
3,-76,-45,-24,83,-381,-160,-103,-257,99
42,797,-707,-234,-76,-325,-130,-56,-98,187
120,1770,-415,-154,-79,-181,-39,-3,41,160
170,2601,-82,-18,1,-76,-47,-43,0,145
201,3063,-20,21,32,-74,-24,26,208,247
208,2927,59,51,10,-136,27,200,530,418
154,2477,178,105,29,-201,-22,183,330,325
81,1704,121,69,69,-178,2,136,103,157
73,695,-22,7,26,-138,48,135,61,37
284,-124,-49,-44,-93,-241,-39,45,-46,4
423,-851,67,6,-147,-291,-73,-63,-168,47
352,-1575,158,47,-175,-274,-56,-113,-279,160
235,-2161,162,26,-180,-138,-8,-134,-386,137
109,-2349,127,16,-130,52,23,-116,-360,37
-58,-2263,116,27,-83,90,43,-97,-195,27
-155,-1985,65,30,-49,57,109,21,84,42
-86,-1351,99,69,-50,-33,75,38,126,27
-81,-614,269,138,-44,-129,-24,-50,16,-137
-84,190,288,106,-94,-191,-72,-70,135,-207
-83,1050,93,-8,-164,-185,-92,-78,124,-126
-155,1733,-264,-145,-221,-173,-103,-46,167,-81
-169,2001,-348,-171,-188,-52,-83,-14,142,-52
-154,1814,-289,-183,-128,124,-73,-143,-186,42
-182,1297,-281,-223,-78,240,-66,-228,-271,161
-138,414,-148,-162,-4,207,-85,-228,-200,163
-53,-622,-28,-102,44,69,-38,-69,-78,86
-173,-1602,22,-20,169,175,148,163,204,-36
-264,-2420,-2,61,258,379,346,304,359,-258
-70,-3024,-103,-1,132,318,343,326,319,-357
35,-3416,-61,-8,93,187,261,256,177,-267
-42,-3456,-1,66,187,102,166,94,20,-205
-39,-3122,54,103,132,-144,-74,-99,-9,-204
98,-2443,14,77,36,-223,-189,-142,32,-80
236,-1673,-9,59,-6,-137,-137,-34,71,130
202,-936,9,22,-29,-47,-87,24,76,232
-25,-82,-47,-12,-27,135,-53,-18,-55,189
-232,805,-110,-50,-32,297,18,-31,-131,110
-318,1402,-89,-54,-52,399,114,3,-56,51
-215,1543,-86,-43,-83,446,125,-104,-242,-76
40,1481,-35,-34,-118,346,39,-284,-473,-136
28,1029,47,-38,-199,62,-125,-407,-578,-260
-294,32,2,-103,-271,-165,-207,-244,-153,-257
-370,-915,28,-36,-93,-111,-128,-24,217,-95
-110,-1679,28,54,208,-6,19,26,98,-3
26,-2336,-64,37,395,-85,66,78,73,52
54,-2828,-40,58,498,-144,80,189,265,132
178,-2944,145,163,465,-166,82,265,386,138
302,-2731,312,203,243,-246,0,286,495,170
439,-2311,322,122,-33,-332,-78,216,378,240
445,-1649,225,52,-179,-352,-107,106,109,288
250,-940,45,20,-128,-250,-66,37,-82,221
77,-148,-89,-20,-107,-185,-29,33,-172,117
19,769,-147,-71,-164,-100,-31,63,-52,57
49,1614,-100,-72,-181,-37,-85,80,213,113
77,2060,-13,-41,-156,-9,-78,58,222,183
24,1941,21,-26,-81,29,-9,34,66,77
-31,1567,3,-3,0,4,-34,-38,-96,-96
-10,886,-64,-37,18,-89,-83,-101,-170,-88
20,-34,-104,-89,-19,-104,-39,-59,-113,41
-8,-940,-15,-35,6,-16,-3,-58,-176,6
-59,-1709,1,-2,36,99,82,-38,-200,-74
-76,-2373,-88,-23,37,298,166,-58,-166,-42
-42,-2824,-83,-5,44,387,128,-173,-246,-96
-2,-2813,-32,-15,-28,283,129,-187,-376,-128
-61,-2549,58,-18,-126,100,115,-97,-431,-217
-113,-2066,26,-103,-229,-21,45,-22,-204,-219
-73,-1335,44,-149,-284,-15,-23,-86,22,-105
-80,-546,98,-80,-232,42,1,2,144,-37
-71,372,-3,-105,-256,-48,0,112,309,29
-3,1361,-92,-92,-220,-226,-80,93,372,36
-81,2077,-91,3,-53,-274,-81,118,249,-97
-173,2332,-32,66,149,-205,-12,168,58,-202
-128,2270,104,130,387,59,26,90,-118,-167
-84,1901,126,80,383,203,17,11,-135,-17
-24,1103,-35,-14,192,129,0,-24,-14,82
47,199,-252,-50,61,89,36,22,200,78
-18,-610,-88,11,12,56,87,63,261,-38
-210,-1437,147,62,-15,31,50,-7,163,-195
-282,-2092,135,2,-118,7,-46,-170,-98,-324
-175,-2376,-215,-132,-264,-34,-45,-230,-262,-307
-66,-2246,-342,-166,-331,-42,3,-189,-180,-241
-58,-1981,-225,-100,-219,-90,-31,-168,-220,-179
-48,-1465,-151,-49,4,-69,-39,-125,-244,-28
-43,-702,-72,43,275,159,28,-47,-81,128
-74,86,-115,20,360,364,65,27,41,220
-43,1014,-105,-39,286,309,17,42,94,250
43,1940,-33,-32,178,206,13,16,174,298
234,2624,127,56,95,10,-69,0,275,301
468,2826,198,121,67,-222,-163,47,280,257
386,2562,40,92,51,-281,-129,87,98,194
214,1938,17,60,17,-259,-137,-14,-189,89
51,1012,127,103,94,-169,-128,-62,-290,91
-77,51,166,126,125,-113,-51,28,-192,158
46,-758,200,122,58,-167,-37,109,-67,197
236,-1405,231,68,-113,-219,-35,171,218,293
199,-1963,253,49,-247,-83,47,108,110,227
85,-2151,245,12,-311,117,76,-113,-341,11
51,-1941,79,-138,-400,195,16,-305,-513,-93
-77,-1579,-74,-258,-442,166,-19,-281,-213,-177
-211,-931,-134,-180,-305,171,17,-190,-32,-270
-256,-122,-255,-92,-22,282,178,-43,53,-346
-306,719,-315,-74,152,273,249,131,299,-334
-294,1665,-257,-23,314,90,205,295,303,-271
-129,2579,-132,52,500,-8,148,298,147,-207
66,3066,-7,65,468,-26,54,193,238,-46
7,2952,87,96,276,-13,9,183,384,57
5,2503,174,115,-4,-179,-57,256,587,205
64,1652,168,86,-133,-296,-66,289,635,300
127,618,114,48,-124,-283,-45,242,458,291
209,-316,94,0,-165,-279,-76,142,230,233
129,-1233,87,9,-129,-170,-48,51,45,92
-22,-1947,90,33,-60,-54,-6,-2,-87,-82
-52,-2316,70,-1,-77,-30,15,-37,-127,-172
18,-2328,68,-9,-69,-49,22,-56,-124,-133
62,-2117,114,42,-52,-93,-20,-99,-152,-63
33,-1622,54,62,-48,-11,4,-97,-319,-41
181,-823,-77,-43,-113,143,13,-121,-536,40
312,15,-190,-153,-187,197,-17,-159,-583,92
153,907,-171,-145,-160,155,-33,-175,-489,9
-66,1836,67,38,-34,124,-64,-257,-447,-203
-226,2519,214,177,43,125,-51,-189,-165,-322
-384,2680,300,192,94,168,-34,-8,261,-226
-350,2565,563,240,122,83,-142,-55,181,-141
-219,2140,379,143,76,-72,-205,-125,-47,-93
-22,1359,-411,-165,2,-151,-155,-34,80,145
76,470,-529,-195,62,-83,-48,119,316,285
18,-430,-62,-6,205,0,57,200,405,260
-6,-1239,-28,16,210,-13,82,198,404,151
55,-1882,-119,-6,120,14,86,132,223,46
115,-2162,11,-28,-31,-15,48,12,-9,93
131,-2076,58,-36,-167,-100,-33,-110,-154,161
82,-1756,26,-35,-156,-73,25,-45,-93,183
49,-1154,-57,-67,-143,-56,94,37,-127,168
32,-414,-35,-37,-162,-136,3,-59,-240,132
-48,364,66,49,-111,-125,-59,-145,-250,-29
-138,1329,42,42,-123,-118,-81,-114,-38,-177
-102,2287,-87,-9,-100,-58,-67,-21,142,-180
20,2896,-252,-77,-24,-2,-61,-24,111,-116
61,2982,-274,-105,-12,19,-65,-37,90,-69
10,2716,-174,-98,5,77,-25,-57,-41,-152
48,2020,-117,-35,161,268,86,-45,-89,-216
115,994,-11,47,320,351,108,-35,-41,-188
135,93,35,22,238,382,72,-99,-126,-144
59,-757,76,47,202,517,62,-197,-335,-192
-40,-1568,95,90,225,478,94,-120,-368,-194
-122,-2198,-2,37,143,229,172,199,-163,-95
-97,-2368,-11,-1,63,26,168,290,-17,-38
-53,-2248,-1,-23,30,3,147,158,124,9
-59,-1923,-72,-45,9,323,294,117,251,-14
-32,-1293,-86,-24,68,744,422,32,122,-38
-24,-612,-105,-69,-70,559,330,-22,31,17
-124,185,-177,-158,-266,26,113,-19,46,35
-219,1093,-160,-157,-297,-343,-54,-63,-130,-50
-306,1865,-95,-90,-245,-562,-143,-149,-381,-239
-254,2162,-22,0,-90,-494,-119,-126,-439,-307
-134,2019,32,96,119,-335,-98,-42,-391,-224
-56,1609,94,165,306,-238,-80,44,-326,-111
117,733,182,258,448,-196,-110,118,-40,29
439,-211,170,234,266,-282,-186,168,300,210
586,-1049,185,150,-38,-371,-228,70,160,309
555,-1914,126,34,-191,-373,-198,-53,-60,357
348,-2706,-28,-82,-225,-331,-127,35,168,397
125,-3129,39,-70,-196,-296,-125,94,423,300
23,-3107,162,16,-127,-214,-132,5,307,128
97,-2829,244,114,-54,-155,-127,-50,149,66
14,-2330,249,140,-6,-85,-21,67,272,26
-212,-1562,116,89,20,28,42,84,240,-128
-268,-638,-83,-11,-21,162,67,46,163,-165
-242,365,-166,-56,-112,247,101,47,176,-61
-281,1327,-182,-75,-195,318,97,-30,1,-48
-259,2027,-158,-116,-269,367,87,-79,-214,-56
-301,2143,-91,-89,-206,465,140,-85,-212,-118
-328,1915,-17,-33,-87,367,136,-95,-69,-133
-175,1484,-56,-25,25,165,82,-115,-160,-120
2,672,-83,-36,161,30,47,-70,-108,-36
56,-304,-48,6,192,-153,-12,9,-5,21
77,-1166,1,17,109,-333,-139,-28,-72,-16
194,-1845,32,-4,-4,-357,-218,-77,60,39
281,-2376,-1,-13,-40,-292,-175,-15,339,158
253,-2610,-32,1,15,-184,-71,79,399,145
165,-2518,61,28,117,-116,-1,125,287,-5
53,-2242,245,83,153,-45,15,93,152,-112
-55,-1691,214,44,117,38,15,52,62,-103
-105,-1055,20,-49,54,111,55,32,-26,-54
-21,-304,-241,-110,54,132,86,45,-50,4
-9,621,-279,-60,77,121,95,99,-8,47
15,1439,-102,-35,-8,44,81,75,-99,64
171,1843,-37,-69,-145,-120,-47,-45,-214,109
157,1674,-96,-112,-179,-185,-125,-107,-245,148
6,1246,-37,-78,-118,-160,-150,-124,-136,136
179,560,29,-70,-105,-124,-171,-91,176,279
400,-406,34,-55,-44,-10,-132,-51,285,286
-24,-1431,100,44,42,81,-72,-81,105,-45
-497,-2344,95,86,55,116,0,-35,-31,-310
-399,-2987,-5,54,79,108,-15,-44,-144,-340
-104,-3333,-127,12,35,44,-95,-97,-158,-232
-180,-3365,-120,-3,17,84,-44,-72,-207,-186
-237,-3076,139,68,101,126,16,-87,-354,-255
-147,-2396,207,151,229,130,7,-162,-512,-264
-126,-1487,78,154,274,135,46,-129,-506,-206
-123,-619,-64,110,260,222,189,20,-367,-132
-160,393,-93,40,134,241,287,154,18,14
-152,1486,-83,-45,-5,248,325,257,378,94
-99,2403,-71,-61,-88,117,239,188,283,10
-47,2818,-27,-58,-153,-138,40,25,-6,-83
62,2780,64,-7,-152,-309,-138,-192,-307,22
102,2315,151,18,-143,-320,-145,-108,-74,216
101,1451,179,23,-140,-264,-87,97,400,310
135,581,234,50,-125,-241,-74,108,468,217
81,-264,309,134,-41,-188,-78,43,347,-71
-13,-1067,251,129,-7,-108,-32,58,305,-270
93,-1659,-165,-17,5,-16,0,84,214,-263
226,-1960,-341,-94,27,107,-50,62,184,-65
150,-1991,-197,-93,7,224,-52,61,228,136
62,-1865,-131,-88,-17,398,43,77,121,157
-22,-1444,-102,-69,-11,496,183,114,-23,38
-100,-823,-81,-83,-82,446,277,185,-2,-35
-175,-168,-134,-103,-154,235,209,129,-29,-103
-147,705,-232,-95,-184,-80,49,1,-118,-182
-106,1557,-213,-106,-174,-230,-85,-138,-204,-172
-182,2016,-198,-119,-33,-67,-130,-251,-318,-146
-110,2016,-157,-86,69,-11,-160,-269,-356,-113
-3,1726,-120,-107,73,-24,-86,-77,-170,-66
15,1055,-186,-99,117,83,21,180,33,-49
33,41,-49,13,110,116,51,145,-56,-129
96,-884,60,55,-24,-35,30,7,-206,-144
114,-1637,123,30,-141,-194,-36,-106,-243,-84
105,-2234,210,79,-2,-252,-63,-213,-304,43
119,-2642,244,127,142,-336,-96,-264,-360,148
121,-2710,152,81,108,-427,-134,-93,-46,236
166,-2464,140,57,48,-388,-151,39,95,206
268,-2007,79,37,-82,-354,-138,50,74,161
243,-1277,7,49,-171,-353,-150,52,234,139
85,-491,2,72,-102,-183,-100,54,354,73
-26,315,46,46,-42,3,-26,14,327,17
4,1276,23,-33,-65,47,7,-1,254,89
123,2160,-53,-86,-43,87,21,-2,111,115
234,2635,-7,-97,-18,143,-22,-109,-114,90
177,2477,-26,-176,-114,129,-49,-186,-260,90
41,1927,-197,-232,-79,147,-8,-176,-250,73
2,1078,-254,-124,142,230,-44,-149,-129,70
-81,-5,-71,4,204,184,-4,-54,-35,90
-332,-1074,132,132,242,135,60,57,60,60
-372,-1865,307,229,261,115,60,85,177,29
-128,-2467,309,192,236,115,103,205,414,-32
121,-2743,154,109,171,62,161,321,469,-98
124,-2076,136,156,142,20,174,294,270,-116
140,-1406,188,202,113,-13,141,170,32,-123
124,-1156,287,269,86,-58,60,27,-98,-152
51,-480,321,201,-72,-107,65,80,77,-150
7,278,228,76,-169,-85,124,170,169,-117
44,1222,-31,-20,-138,-33,114,141,105,8
91,2222,-265,-114,-142,-42,66,130,129,145
41,2889,-302,-134,-108,-9,35,146,139,172
3,3120,-163,-57,-26,65,6,68,122,83
12,2986,-45,-5,14,96,-51,-64,58,35
65,2376,-7,-25,12,170,30,-69,-38,19
38,1405,-20,-39,-5,255,135,-76,-171,-72
-25,333,-44,-11,-4,296,156,-154,-310,-103
-156,-670,-150,8,24,505,216,-181,-378,-123
-234,-1539,-198,-32,-2,576,229,-98,-241,-81
-190,-2174,-149,-47,-37,338,193,62,28,-23
-89,-2396,-95,-111,-67,10,107,186,77,-22
-3,-2233,-108,-163,-62,-254,-61,80,-69,-42
0,-1880,-158,-122,-30,-388,-246,-109,-211,-105
55,-1228,-158,-73,29,-353,-291,-168,-267,-178
209,-360,19,0,25,-337,-321,-257,-328,-145
201,425,73,28,-16,-368,-312,-166,-81,46
125,1297,66,57,-47,-321,-283,-46,167,182
143,2185,115,79,-76,-201,-247,-65,136,212
212,2706,37,28,-156,-55,-165,-71,21,217
194,2659,46,-9,-231,101,7,-37,-154,204
19,2232,205,33,-206,322,127,-98,-419,0
-169,1502,160,76,-133,627,191,-148,-512,-223
-311,525,119,54,-77,745,214,-204,-450,-301
-476,-498,5,-82,-150,516,138,-338,-396,-367
-608,-1401,-378,-244,-236,188,150,-135,148,-303
-552,-2061,-512,-278,-189,-53,199,191,470,-235
-326,-2461,-316,-144,117,-202,89,102,204,-243
-11,-2429,-186,-67,401,-344,-8,55,253,24
322,-2088,-121,-94,423,-388,-28,193,456,431
516,-1558,-74,-89,282,-251,-43,147,284,629
524,-850,62,-12,114,-152,-142,-8,29,616
401,-143,251,142,44,-193,-239,-95,-115,412
103,1407,434,328,-13,-344,-185,161,612,52
134,2187,398,267,-58,-271,-149,104,393,-144
203,2522,259,110,-69,-256,-184,-54,26,-167
184,2313,20,-63,-49,-206,-104,-2,-16,21
-6,1815,-65,-102,-34,-150,-19,71,-99,24
-118,1001,55,9,10,-130,-20,80,-222,-110
-154,-781,172,108,-2,-61,71,157,-30,-111
-200,-1541,215,163,90,52,147,86,6,-158
-168,-2107,225,163,60,35,148,-9,37,-135
36,-2289,184,91,-92,-80,77,-27,215,70
106,-2104,230,95,-146,-117,45,-28,151,79
-83,-1734,270,115,-104,24,127,-25,-119,-176
-208,-1064,177,68,-69,186,183,-17,-240,-298
-200,-185,-103,4,12,284,167,-42,-313,-275
-95,706,-349,-81,49,244,141,-92,-462,-206
-77,1687,-329,-147,-31,44,42,-55,-233,-102
-26,2740,-207,-101,59,6,-47,-30,117,-105
51,3545,-75,14,269,159,-71,-39,242,-45
67,3725,82,71,255,252,20,-24,155,95
105,3368,106,-19,59,186,74,2,129,210
137,2678,41,-88,-76,46,8,25,206,192
155,1631,-109,-89,-55,-56,-70,-3,98,101
152,508,-291,-188,-74,-114,-32,52,155,152
11,-518,-353,-216,-82,44,82,133,263,154
-53,-1300,-287,-181,-72,377,82,114,264,86
38,-1848,-110,-92,-48,510,-7,-25,-5,71
107,-2164,-12,-25,-71,189,-152,-186,-330,155
207,-2151,-68,-76,-151,-233,-260,-180,-314,251
353,-1817,-3,-80,-167,-442,-250,-138,-277,181
359,-1223,11,-65,-85,-441,-163,-84,-212,63
136,-647,4,-1,59,-270,3,107,153,16
-98,132,182,134,143,-81,109,329,613,33
-48,1279,346,256,162,-111,-25,248,577,11
92,2305,232,223,157,-122,-105,78,246,14
116,2809,56,116,133,-54,-69,2,9,27
91,2806,-15,58,74,-57,-78,-10,-35,3
32,2486,-26,23,-14,-146,-82,15,18,-14
-119,1715,9,50,-43,-135,-2,80,80,-56
-241,702,40,101,-10,-40,88,141,90,-175
-253,-126,25,120,16,18,83,96,-20,-274
-215,-799,21,80,4,24,61,37,-61,-234
-171,-1413,-2,-4,-65,-15,66,17,-70,-134
-172,-1872,-16,-24,-75,6,82,-32,-233,-130
-151,-1851,-64,3,-33,118,139,-41,-327,-181
-47,-1551,18,74,101,249,191,-48,-362,-204
64,-1063,102,117,250,272,129,-100,-390,-131
140,-296,-82,1,141,148,42,-40,-187,145
84,461,-107,-119,-99,7,-50,-70,-65,252
-60,1314,-132,-194,-249,-21,-108,-137,-180,106
-133,2265,-187,-201,-228,71,-56,-159,-367,-55
-227,2944,-241,-150,-136,92,-9,-84,-112,-88
-298,3091,-260,-59,-53,23,-31,38,424,-62
-112,2900,-128,-23,-43,-135,-107,20,378,-106
151,2422,30,-3,-44,-245,-203,-78,125,-171
192,1489,109,57,13,-69,-180,-118,-21,-249
93,454,114,77,12,106,-100,-93,-46,-210
-6,-493,81,42,18,86,-65,-53,-26,-132
-144,-1355,79,32,103,13,-30,-24,-79,-171
-155,-2048,166,97,232,33,-39,-86,-187,-215
-43,-2418,158,143,363,178,29,-105,-178,-155
58,-2390,133,139,423,222,82,-35,-28,-31
116,-2135,157,116,329,192,90,-16,-72,55
100,-1626,35,38,156,102,100,88,-21,135
89,-929,-28,-6,-6,-58,79,290,255,242
-3,-115,96,54,-61,-185,-20,244,202,155
-97,956,135,54,-100,-207,-77,91,81,40
-67,1937,65,13,-141,-202,-57,-27,-4,34
336,1295,-224,-57,-95,-107,62,38,-5,130
248,348,-132,-60,-98,-53,78,-12,-182,73
159,-462,-212,-117,-147,58,128,-46,-263,55
201,-1187,-188,-166,-225,115,144,-127,-241,160
211,-1937,-146,-151,-283,40,111,-97,-75,247
190,-2173,-174,-162,-289,-46,74,54,151,268
93,-2039,-144,-150,-200,-107,-8,119,149,263
51,-1684,-82,-125,-157,-177,-103,157,107,254
130,-977,-2,-88,-96,-104,-135,125,-15,202
35,-233,66,0,150,248,-41,-44,-135,-2
-147,537,121,88,331,419,30,-120,34,-189
-216,1438,144,111,298,286,19,-111,102,-221
-251,2122,89,73,146,151,28,33,39,-263
-379,2283,-13,16,-20,50,-3,65,46,-293
-387,2069,-83,-52,-160,-42,-43,33,145,-214
-244,1678,-82,-57,-224,-5,-52,-35,98,-136
-137,884,110,79,-220,64,-39,-100,2,-80
-116,-154,337,144,-177,81,-54,-145,-100,-78
-162,-1132,343,83,-34,204,23,-142,-152,-102
-328,-2513,188,3,105,274,71,-170,-217,-229
-368,-3852,-198,-97,94,103,40,-114,-139,-223
-271,-4235,-463,-160,41,-6,61,22,-15,-95
-84,-4100,-352,-159,-36,-202,-19,31,51,34
145,-3755,-271,-170,-67,-384,-68,120,259,211
338,-3144,-127,-67,74,-310,-56,194,385,357
484,-2241,40,55,218,-154,-66,92,184,413
431,-1362,124,121,159,-158,-91,24,72,434
151,-440,71,61,-6,-254,-121,30,77,338
-8,550,63,15,-18,-316,-218,-92,-169,190
38,1272,17,65,0,-329,-282,-156,-324,189
99,1431,-42,47,-82,-299,-225,-87,-283,268
-14,1173,1,13,-102,-134,-65,-79,-407,181
-111,693,21,-6,-90,13,64,-22,-335,100
48,1,97,-3,-71,121,114,37,-90,122
282,-472,201,53,-30,164,87,-33,-125,48
110,-1055,227,106,33,206,93,-28,-30,-95
-251,-1768,132,90,66,353,168,174,492,-162
-362,-2213,91,74,99,483,260,309,716,-174
-304,-2250,87,44,120,418,278,226,450,-198
-168,-1856,4,-25,115,211,232,159,242,-206
77,-1218,-81,-84,-2,-56,110,90,203,-99
156,-358,-60,-68,-139,-344,-38,10,189,-93
89,566,36,50,-60,-349,-92,-90,-92,-228
43,1483,52,108,10,-208,-117,-151,-233,-236
151,2607,38,79,3,-148,-105,-90,-179,-68
346,3736,2,3,40,-119,-67,-57,-310,168
384,4380,-102,-122,23,-218,-141,-121,-419,232
224,4301,-129,-158,38,-262,-180,-125,-229,249
110,3910,-42,-82,110,-127,-81,-87,-205,219
-60,3109,80,24,74,11,13,-26,-150,23
-231,1956,134,120,79,94,58,149,378,-43
-143,939,39,117,88,116,120,271,620,-79
62,87,3,43,86,102,165,251,456,-106
121,-698,16,-12,24,134,171,188,300,-53
67,-1247,19,-67,-75,249,158,82,179,-10
-71,-1461,20,-85,-100,348,192,50,117,-2
-186,-1368,120,-21,-62,266,169,22,77,-12
-184,-1008,206,48,13,107,95,-17,23,42
-180,-376,172,55,4,-110,-37,-86,-75,48
-77,343,-40,-48,-139,-247,-46,-53,-159,49
19,1180,-177,-90,-176,-161,5,-56,-291,33
-10,2111,-96,-58,-193,-102,-52,-176,-552,-119
-98,2834,-37,-70,-245,-114,-139,-250,-700,-253
-83,3020,-51,-57,-161,5,-154,-221,-615,-161
0,2775,-165,-43,0,93,-135,-301,-735,-87
0,2252,-254,-88,110,155,-90,-350,-740,-60
-128,1265,-254,-153,134,346,3,-265,-267,-28
-281,170,-224,-157,94,532,102,-117,320,-60
-321,-727,-66,-85,-23,430,152,56,741,-138
-251,-1539,95,-3,-122,147,160,287,895,-120
-218,-2269,130,82,-78,-138,101,313,602,-100
-153,-2605,66,68,36,-350,32,266,500,56
-28,-2507,-56,49,370,-349,8,232,424,189
92,-2182,-42,85,552,-194,-2,178,234,228
262,-1512,-3,72,349,-84,-60,56,-39,347
303,-591,36,110,153,166,-58,-38,-375,413
243,374,180,201,49,262,-52,-50,-564,279
160,1328,368,280,10,149,-91,-59,-477,158
32,2166,516,310,18,45,-154,-118,-118,66
-82,2742,371,178,-60,-197,-227,-82,382,36
-111,2797,-39,-65,-175,-348,-81,148,656,29
39,2560,-376,-214,-182,-236,151,361,448,3
160,2033,-314,-226,-178,-196,144,235,-4,44
141,1088,-94,-109,-96,-279,6,-36,-432,2
117,153,-53,24,2,-224,-98,-159,-459,-17
40,-601,-178,34,19,-152,-133,-120,-193,-59
-52,-1171,-141,0,-11,-175,-208,-143,35,-275
-94,-1651,0,25,47,-108,-161,-16,397,-354
40,-1840,98,43,116,-26,-26,234,736,-122
171,-1672,57,35,118,6,36,334,740,30
131,-1328,130,45,17,1,56,226,378,10
52,-628,254,43,-172,-46,49,69,12,-69
-33,197,164,-47,-292,8,86,-54,-284,-201
-82,1021,144,-100,-255,125,119,-107,-445,-204
-69,1952,-22,-55,-105,213,60,-155,-582,-158
-61,2767,-121,55,100,262,-10,-235,-583,-157
-79,3147,-154,-56,0,135,-8,-65,27,30
-65,3074,-216,-197,-200,-6,28,93,410,130
-68,2609,-299,-258,-247,271,150,54,120,27
-135,1716,-377,-237,-162,613,211,-90,-290,-156
-71,693,-376,-161,-9,553,116,-208,-478,-231
-9,-228,-268,-96,126,293,34,-216,-457,-178
-133,-1071,-46,-5,214,-35,-31,-60,-205,-122
-244,-1788,72,28,167,-379,-74,166,154,43
-158,-2180,174,88,119,-499,-157,116,113,104
-23,-2081,240,157,218,-217,-135,37,23,70
55,-1793,167,113,238,32,13,222,448,207
144,-1290,131,80,151,-12,46,305,731,285
202,-513,222,127,49,-143,-31,210,569,212
236,356,275,163,-43,-250,-80,111,357,137
99,1268,270,167,-72,-231,-68,27,84,21
62,2304,299,165,-120,-198,-40,-36,-153,0
97,3134,343,193,-138,-158,-78,-143,-268,17
160,3443,274,124,-58,75,-98,-234,-409,58
139,3336,112,-7,12,324,-69,-270,-399,33
56,2892,-58,-34,120,353,-16,-242,-273,-84
51,2083,-337,-117,74,351,55,-157,-227,-165
-6,1162,-335,-130,31,408,79,-152,-274,-229
-140,262,-149,-38,137,409,123,-156,-269,-204
-155,-541,1,38,219,250,163,-109,-225,-110
-166,-1144,-36,-7,176,58,205,116,-39,-17
-194,-1348,-128,-48,68,-175,175,220,26,6
-39,-1043,-110,-53,-76,-367,76,153,95,172
19,-551,-138,-117,-194,-426,-37,68,27,171
-52,165,-154,-165,-312,-456,-128,48,76,37
-128,1034,146,-12,-324,-496,-287,-15,230,-152
-99,1847,200,79,-240,-356,-263,60,605,-105
92,2741,53,12,-147,-95,-33,179,659,47
157,3617,35,50,22,172,150,129,227,-92
188,4246,-68,51,54,269,175,15,-50,-222
237,4356,-119,0,-22,235,110,-58,-165,-188
258,4142,-149,-26,-32,148,59,-19,-140,-108
172,3513,-177,-53,-12,64,56,-12,-188,-129
-38,2457,-155,-42,69,75,54,-41,-301,-192
-217,1429,-91,-14,44,0,-12,-98,-266,-79
-249,536,-97,5,12,-16,-31,-114,-203,76
-192,-230,-25,73,168,80,28,-113,-302,28
-31,-806,115,104,283,20,0,-110,-329,56
56,-974,138,114,167,-153,-91,-63,-142,147
41,-870,-8,75,-63,-262,-56,67,167,218
-70,-623,-15,77,-144,-122,53,145,249,202
-144,-36,234,160,-28,158,128,69,26,41
-124,710,300,147,18,268,133,75,65,-12
-178,1497,-22,-9,-102,186,84,149,261,39
-101,2478,-149,-75,-111,35,-5,96,261,44
160,3339,0,-11,-29,-94,-122,-82,23,13
187,3746,-111,-14,-13,-194,-183,-183,-156,-159
148,3714,-165,-35,-11,-168,-137,-114,21,-211
108,3284,-177,-111,-10,14,5,20,286,-128
76,2401,-231,-132,81,336,150,95,226,-95
107,1414,-226,-57,162,365,98,104,61,-45
65,500,-115,40,217,131,-100,-41,-49,46
-14,-303,-11,7,145,-103,-186,-91,-4,106
14,-997,-71,-132,-5,-259,-213,-48,27,124
136,-1436,-214,-218,-188,-405,-207,19,161,234
266,-1480,-111,-175,-225,-322,-165,61,179,312
278,-1380,69,-32,-92,-167,-166,34,-1,286
250,-1032,213,98,40,-106,-171,73,-76,202
154,-400,292,161,76,-66,-116,118,-66,56
-38,227,299,149,54,-68,-88,128,49,-93
-198,1039,297,136,18,-71,-48,101,201,-228
-182,1973,295,124,-7,-32,46,76,212,-224
-171,2703,254,110,18,22,74,-1,42,-234
-254,2924,223,101,58,75,19,-71,-82,-231
-260,2750,136,56,34,50,-30,-108,-109,-160
-164,2261,25,31,14,38,-17,-112,-134,-124
-117,1355,-109,-17,-13,57,32,-114,-217,-111
-100,370,-134,-87,-100,42,66,-120,-312,-75
-117,-547,-23,-58,-71,67,73,-156,-452,-87
-77,-1379,34,-4,-24,125,80,-194,-577,-88
-22,-2041,70,12,-51,78,16,-253,-615,-100
-53,-2367,-120,-114,-153,-33,-74,-191,-247,-2
-122,-2347,-287,-197,-138,-37,-34,-65,48,34
-160,-2145,-123,-42,67,104,58,-93,-233,-180
-251,-1672,47,51,178,265,57,-97,-220,-255
-186,-984,86,12,152,286,35,-10,154,-35
-53,-186,171,51,184,188,-25,-87,123,-64
-19,733,-58,8,228,97,-20,-82,60,-108
91,1618,-347,-80,256,52,-7,-49,-61,-109
272,2120,-217,-99,167,77,10,-16,-135,-32
345,2005,-33,-95,-61,98,33,92,173,198
274,1590,-47,-104,-149,168,66,163,337,283
170,798,-116,-101,-118,178,135,219,302,222
48,-376,-143,-67,-85,-15,125,247,413,178
35,-1437,-143,-20,-46,-218,51,310,714,194
121,-2332,10,6,-27,-274,24,335,675,168
129,-3044,142,49,-34,-274,39,276,390,79
147,-3566,97,8,-89,-281,20,209,258,130
182,-3725,23,-7,-82,-231,-19,83,124,226
212,-3588,31,28,-48,-178,-59,-65,-52,188
153,-3244,96,68,13,-44,-86,-184,-255,10
86,-2590,82,72,49,137,-43,-191,-292,-121
40,-1799,95,55,33,147,-21,-131,-165,-132
-113,-953,121,31,-6,114,-7,-162,-270,-188
-331,-54,93,38,32,163,76,-205,-512,-357
-389,744,145,62,25,227,90,-290,-808,-429
-350,1092,261,24,-109,126,-7,-386,-926,-448
-380,858,89,-89,-169,155,-46,-347,-709,-477
-373,320,-428,-282,-210,347,47,-186,-210,-367
-251,-496,-634,-354,-264,334,110,-42,292,-215
-161,-1386,-353,-178,-131,229,213,136,589,-126
-90,-2230,-242,-41,-31,-39,160,325,645,-34
2,-3001,-66,45,104,-313,-57,236,485,-8
153,-3766,1,-2,126,-420,-107,168,441,140
148,-5244,85,56,167,-334,-24,135,200,161
96,-6254,269,222,318,-112,54,66,-107,107
159,-5831,313,231,286,-118,25,28,-234,213
224,-5053,210,96,137,-288,-14,37,-326,342
319,-4031,101,25,142,-349,-48,-17,-417,340
360,-3003,24,0,93,-220,-31,-113,-501,203
240,-2008,22,0,-20,47,19,-154,-433,64
79,-1060,81,12,-127,178,-31,-147,-164,68
32,-301,-33,-84,-216,120,-82,-4,275,241
32,-19,-12,-55,-145,20,-178,-32,300,242
38,-45,120,-12,-117,-147,-253,-60,375,194
93,-434,132,-36,-142,-250,-237,-19,484,114
216,-1245,-116,-101,-112,-185,-130,80,644,191
154,-2060,-173,-46,10,-32,-12,80,463,36
-174,-2821,68,93,123,130,41,-42,-21,-446
-312,-3421,204,155,130,187,26,-129,-269,-764
-242,-3817,264,215,131,188,24,-30,-28,-646
-120,-3813,179,186,70,190,54,139,113,-337
19,-3452,-74,14,5,182,173,408,289,-50
13,-2939,-191,-129,60,267,269,524,435,157
-95,-2213,-190,-145,221,481,337,405,272,219
-236,-1403,-166,-97,290,461,198,102,-40,168
-173,-484,-178,-74,186,107,-32,-124,-145,137
132,600,-161,-73,57,-88,-113,-195,-257,94
315,1541,-132,-76,-95,-203,-143,-207,-354,1
207,1994,-47,-22,-154,-319,-156,-151,-174,-54
116,1983,152,84,-68,-332,-121,-9,180,66
27,1683,257,146,62,-258,-38,158,372,114
-32,1052,248,145,136,-159,56,238,254,99
-17,240,134,140,194,-32,80,160,23,76
52,-398,-17,62,86,-31,20,73,-5,91
-22,-929,-69,26,-36,-123,-48,88,200,74
-109,-1441,109,92,-58,-197,-60,97,248,35
-94,-1775,270,130,-105,-262,-83,29,84,-8
17,-1632,281,78,-162,-233,-60,-5,44,2
174,-1209,231,42,-168,-172,-38,-13,84,126
127,-633,143,26,-89,-31,-13,-24,37,237
16,213,-47,2,13,162,73,6,-7,181
-37,1126,-174,-7,72,239,129,-42,-195,92
-80,2118,-257,-82,1,126,30,-178,-422,94
-127,3135,-221,-125,-75,-1,-45,-169,-432,63
-105,3931,-186,-159,-177,-101,-88,-126,-335,52
-8,4282,-161,-162,-221,-165,-174,-144,-182,47
121,4187,-88,-125,-177,-149,-169,-47,166,77
174,3745,-92,-80,-119,-77,-80,78,475,131
175,2871,-100,-29,-52,-8,-33,94,436,31
278,1948,-40,-11,-62,-34,-39,69,314,23
257,1130,1,-19,-88,-62,-16,81,191,38
32,291,17,-20,-70,45,19,125,75,-71
-210,-440,15,9,11,238,70,127,-51,-237
-252,-864,-67,-26,0,236,88,118,-61,-224
-130,-811,-59,-42,-21,159,86,44,-102,-157
-14,-479,-9,-16,-1,158,37,-141,-338,-205
46,102,-10,-1,40,204,-3,-283,-524,-246
-66,745,-6,13,67,115,-47,-278,-517,-226
-347,1302,-31,5,66,31,-18,-181,-404,-258
-442,2064,-32,12,26,-17,7,-160,-286,-237
-408,2845,0,27,20,-19,34,-115,-57,-187
-395,3321,17,20,57,27,81,-21,100,-171
-257,3278,3,-2,26,16,147,36,98,-111
-19,2931,63,5,-91,-48,154,112,131,14
108,2209,100,22,-140,-114,59,117,63,41
119,1124,87,20,-128,-174,-71,29,-48,-61
17,26,22,-29,-108,-177,-72,50,10,-63
-29,-890,39,12,9,-134,-71,75,95,28
102,-1632,80,59,108,-145,-125,48,91,160
213,-2178,80,82,216,-166,-169,-5,74,259
212,-2347,89,121,333,-92,-131,-6,58,253
205,-2163,188,131,295,-27,-80,7,14,169
183,-1789,266,153,189,11,-52,18,36,140
117,-1195,179,127,94,69,42,111,110,150
133,-501,-35,10,33,108,117,175,151,186
161,288,-168,-69,-20,92,105,161,130,203
101,1208,-167,-97,-69,85,88,100,41,154
21,2013,-112,-95,-69,91,108,37,-54,55
14,2426,-48,-67,-34,65,60,-91,-185,23
55,2412,-60,-91,-35,37,-23,-167,-264,111
62,2107,-105,-122,-91,21,-44,-223,-397,191
33,1358,-55,-110,-119,-18,-74,-305,-575,119
43,406,55,-70,-134,-100,-171,-375,-657,25
20,-417,47,-17,-93,-91,-112,-288,-467,-24
-89,-1111,68,61,-30,-41,-25,-127,-201,-122
-205,-1724,68,32,-53,-47,30,5,158,-187
-143,-2056,27,40,-19,36,94,104,429,-180
0,-1943,-16,40,-4,106,135,148,408,-129
30,-1628,-75,-9,-61,19,100,153,319,-67
14,-1114,-214,-91,-109,-75,55,160,316,-6
54,-338,-255,-113,-82,-107,-5,150,314,44
83,433,-86,-55,-9,-115,-49,70,209,44
98,1300,-36,-31,80,-13,-6,76,150,70
96,2183,-41,-17,107,45,6,80,111,114
118,2812,13,15,83,27,-21,59,109,157
171,2875,59,48,64,31,-4,44,94,180
173,2542,98,78,56,62,28,17,0,149
88,1895,87,74,1,24,-23,-37,-40,104
-10,799,4,5,-59,-38,-68,-35,64,95
-35,-378,-25,-44,-102,-84,-49,-19,90,65
-13,-1420,-19,-59,-110,-63,30,-14,8,42
4,-2310,14,-24,-47,47,44,0,-168,-24
-81,-3014,31,4,25,223,56,79,-212,-42
-206,-3414,-36,-6,49,343,90,133,-115,7
-211,-3373,-91,-30,65,398,153,106,-39,64
-285,-3109,-55,-44,49,313,200,41,-28,32
-367,-2467,67,-7,9,106,123,-131,-160,-150
-213,-1588,136,20,-50,-118,-44,-328,-406,-311
-123,-778,63,-17,-84,-238,-160,-373,-435,-378
-321,104,-43,-18,27,-40,-98,-276,-333,-425
-385,1081,-93,13,84,238,38,-189,-291,-427
-298,1714,-187,-33,-17,463,214,-60,-148,-359
-159,1798,-232,-54,-51,580,293,-68,-94,-217
-70,1596,-98,1,-3,420,230,-164,-140,-107
-104,998,4,26,14,44,143,-62,27,-38
-67,58,49,30,26,-340,47,99,217,103
116,-743,132,37,51,-521,-12,237,502,313
261,-1432,60,-52,41,-521,-63,313,709,444
252,-2063,-84,-101,34,-223,-44,234,489,396
105,-2511,-137,-46,-89,13,-2,145,181,209
81,-2530,6,36,-228,47,-14,60,-157,-35
122,-2250,56,-11,-296,21,-4,-31,-331,-148
32,-1800,102,23,-194,70,-3,-173,-467,-237
-64,-1059,160,89,-95,75,4,-273,-551,-318
-116,-225,57,32,-106,-122,-2,-150,-105,-93
-119,633,-101,-9,3,-298,-30,116,437,154
23,1637,0,19,234,-303,-54,231,558,214
219,2552,171,63,331,-198,-76,165,494,173
298,2968,62,25,289,-93,-110,128,525,160
272,2871,-14,59,326,-24,-103,145,504,123
252,2498,170,163,369,-34,-49,151,308,63
247,1685,227,166,204,-140,-64,120,190,145
259,652,248,158,-9,-198,-74,45,43,209
222,-220,256,153,-100,-198,-66,-28,-119,178
126,-919,161,118,-91,-162,-24,-42,-187,104
55,-1494,76,71,-106,-172,-64,-80,-176,-4
69,-1816,-23,-1,-183,-187,-51,-13,12,34
104,-1763,-63,-77,-163,-99,45,85,58,103
85,-1498,-114,-160,-147,-16,103,77,-59,76
-42,-965,-49,-104,-64,104,103,-20,-205,22
-27,-176,-66,-42,10,341,154,-39,-178,26
62,592,-146,-86,38,593,193,-82,-267,11
66,1393,-220,-128,6,540,134,-180,-391,-15
7,2161,-306,-103,-18,329,49,-187,-258,-75
-61,2717,-266,-94,-18,118,-15,-95,62,-34
-191,2742,-147,-88,11,13,-24,39,292,-33
-263,2404,-42,-18,66,108,2,78,351,-66
-188,1774,30,23,82,115,-20,22,305,-73
-117,761,39,15,75,13,-34,67,372,-42
-130,-276,58,16,94,-71,-24,203,308,-8
-101,-1157,97,49,93,-157,-88,160,125,-22
-26,-1908,146,56,5,-276,-147,7,-38,-45
26,-2512,190,61,-131,-328,-138,-101,-246,-27
70,-2812,130,33,-229,-331,-128,-161,-354,-6
101,-2754,185,56,-183,-250,-115,-197,-455,-14
76,-2486,173,48,-139,-168,-96,-232,-480,-85
52,-1950,9,-65,-183,-79,-52,-182,-313,-106
103,-1311,-107,-103,-150,104,22,-87,-227,-91
116,-568,-179,-93,-22,307,21,-40,-101,-46
43,444,-249,-157,4,405,-5,33,375,124
-10,1302,-240,-157,-17,359,41,21,321,123
-56,1628,-211,-132,-89,169,96,-33,-38,10
-178,1443,-167,-37,1,55,135,-24,-163,-90
-324,1025,-57,93,230,-22,130,-25,-273,-242
-287,351,13,78,251,-145,57,45,-51,-256
-136,-555,70,105,205,-114,53,225,350,-118
32,-1323,197,178,139,-69,41,256,378,13
114,-1940,305,192,-7,-151,-58,149,298,92
30,-2478,410,204,-92,-172,-116,70,329,107
-23,-2792,422,126,-171,-183,-107,47,332,148
-18,-2661,202,-7,-199,-177,-92,12,173,183
-76,-2170,-156,-130,-181,-149,-72,19,49,207
-125,-1359,-282,-146,-90,-73,-20,35,14,206
-113,-313,-275,-99,-45,-72,-22,-12,-11,237
-31,768,-215,-56,85,4,4,-15,-26,221
186,1777,-219,-63,194,104,47,33,-45,160
283,2765,-111,3,210,128,24,68,-64,189
202,3496,19,50,118,130,47,181,-73,186
44,3754,36,26,-18,98,109,289,-84,88
-52,3593,33,47,-31,70,134,263,-88,11
-44,3066,-2,17,-26,28,96,129,0,-18
128,2214,0,-1,-68,0,34,-18,86,15
231,1323,53,17,-92,-1,22,-117,20,17
62,440,29,-34,-134,21,46,-41,47,-18
-80,-371,-37,-31,-97,258,83,-55,-80,-126
-12,-925,-19,-22,-48,556,102,-249,-466,-165
98,-1160,-58,-93,-77,611,119,-366,-726,-100
-9,-976,-74,-107,14,581,204,-419,-978,-171
-221,-659,-118,-101,28,426,188,-459,-1157,-335
-414,-279,-253,-185,-123,228,42,-471,-986,-458
-530,271,-392,-202,-169,111,-53,-382,-632,-601
-549,876,-410,-156,-32,111,-51,-207,-103,-580
-411,1718,-214,-98,141,170,0,-44,317,-351
-117,2725,2,20,340,25,-68,56,564,-33
156,3366,126,103,372,-391,-203,156,735,250
440,3360,241,125,205,-657,-245,333,799,476
558,2946,220,108,97,-586,-199,490,884,607
417,2127,252,179,224,-387,-157,346,718,523
134,954,407,322,348,-276,-121,221,455,287
97,-42,450,332,200,-389,-215,91,220,165
405,-767,327,169,-121,-537,-318,-57,5,196
479,-1433,121,48,-245,-442,-210,-54,-73,232
277,-2019,-37,-28,-190,-287,-65,-29,-180,207
53,-2248,49,0,-95,-205,-58,-56,-186,72
-40,-2138,51,8,-72,-142,-74,-8,51,73
9,-1792,11,-19,-96,-73,-11,128,383,198
113,-1082,41,-8,-63,6,39,191,440,216
75,-302,37,9,-3,62,53,168,355,143
-117,530,21,29,37,92,54,144,305,-5
-286,1508,60,71,66,141,80,125,205,-110
-377,2333,49,65,64,182,143,138,128,-156
-369,2800,19,49,-6,154,144,107,-5,-212
-299,2828,23,47,-41,118,93,16,-161,-243
-270,2574,16,38,-48,127,76,-63,-324,-258
-169,1920,-14,-24,-97,89,37,-109,-370,-236
-49,1058,-86,-117,-190,17,-18,-107,-150,-164
0,328,-43,-108,-139,-4,-59,-175,-190,-202
-33,-297,41,-13,59,106,-73,-255,-371,-281
-92,-834,28,13,206,258,-8,-194,-301,-244
-109,-1149,-8,0,191,302,39,-90,-95,-145
-78,-1054,-42,-13,70,258,43,-20,46,-46
-19,-718,-40,-12,-6,162,82,-13,13,77
-9,-202,-82,-22,-4,83,151,35,67,230
-74,497,-99,25,42,34,166,44,12,191
-86,1299,-35,80,114,32,114,-55,-197,100
-125,2291,8,58,98,-42,64,-189,-412,7
-136,3331,-37,-44,7,-133,28,-229,-514,-74
-29,4143,-177,-167,-42,-82,87,-111,-542,-91
88,4446,-264,-183,-78,-43,93,-103,-652,-60
132,4282,-265,-187,-155,-84,43,-119,-581,26
102,3721,-319,-295,-296,-156,27,70,-84,189
123,2765,-191,-253,-323,-259,-56,189,329,280
150,1794,70,-1,-142,-252,-165,130,559,182
143,892,238,163,68,-111,-106,245,867,115
236,140,400,216,158,-44,-15,300,791,121
305,-476,461,208,177,-51,-13,275,702,111
171,-882,295,146,182,-92,-43,208,562,32
60,-884,130,117,188,-84,-92,70,265,17
23,-674,83,136,156,23,-60,48,133,30
76,-184,-47,60,31,30,-18,61,133,15
41,410,-63,-3,-50,48,32,55,99,-58
-9,986,-38,-17,-70,33,18,40,57,-98
6,1714,-119,-46,-51,-4,-40,-21,-17,-113
53,2399,-89,-19,8,-5,-61,-96,-131,-122
11,2711,-67,6,46,33,-21,-33,-76,-39
-25,2523,-115,-16,54,59,43,51,-1,-2
40,2024,-79,-16,58,33,37,47,4,-3
111,1190,-30,-14,44,7,-27,-1,-31,14
164,88,-27,-55,-8,-49,-82,-69,-102,26
203,-962,-160,-88,-32,-50,-82,-117,-220,35
171,-1904,-107,-34,17,184,-3,-168,-367,-5
86,-2673,26,7,36,482,108,-187,-540,0
0,-3275,50,3,2,507,136,-260,-695,-26
-145,-3533,-8,-51,-64,394,123,-302,-670,-44
-321,-3499,-37,-25,-41,393,163,-243,-567,-177
-338,-3136,-52,-8,-51,261,104,-271,-647,-350
-242,-2428,-83,-49,-135,37,1,-292,-480,-270
-178,-1595,-96,-45,-78,83,-19,-211,-74,-59
-242,-707,-184,-92,-16,59,-7,-121,46,-110
-222,367,-257,-201,-31,-166,-57,-6,229,-203
-67,1347,-143,-127,128,-256,-91,171,549,-104
44,1873,-11,25,323,-338,-89,291,559,-59
57,1926,8,112,350,-352,-64,324,318,-133
45,1645,109,106,118,-201,-33,285,30,-95
-34,931,201,114,-136,-69,-28,221,-13,4
-141,-5,207,111,-206,-75,-34,190,221,125
-169,-856,72,61,-135,-185,-34,189,492,198
-152,-1526,75,40,-87,-246,1,216,638,266
31,-1976,107,23,-64,-214,33,146,404,246
275,-2203,-28,-20,32,-57,41,55,152,152
227,-2072,-61,50,167,117,24,-44,-61,-18
200,-1706,28,100,95,61,-29,-77,-107,33
146,-1259,27,40,-68,-111,-46,54,240,178
17,-580,25,1,-91,-141,-6,185,569,203
25,276,91,53,38,-62,24,186,526,149
91,1310,62,90,103,-33,-25,79,250,-14
93,2324,12,109,104,5,-62,-33,29,-121
67,3042,106,91,49,44,-24,-4,34,-127
55,3227,117,63,-30,7,-23,-51,-66,-160
22,3047,70,39,-76,-13,-41,-113,-191,-207
-31,2509,39,35,-68,12,-15,-74,-199,-186
-47,1568,-3,17,-39,52,18,-38,-210,-112
-33,592,-122,-56,-129,68,13,-99,-374,-36
-60,-273,-166,-157,-313,122,-24,-235,-638,-46
-93,-1027,-188,-252,-465,73,-45,-336,-801,-26
-169,-1662,-158,-217,-443,-19,-80,-408,-843,-105
-129,-1931,-60,-101,-331,-93,-150,-432,-737,-209
-87,-1871,-11,-13,-94,-74,-115,-303,-331,-194
-203,-1660,28,108,350,160,99,88,408,-181
-306,-1186,108,215,648,367,298,350,706,-180
-145,-501,79,148,578,402,399,357,602,-43
84,312,0,42,312,399,372,305,483,107
106,1250,102,25,100,342,233,217,320,89
73,2087,175,28,3,161,65,123,204,33
102,2569,82,44,31,-8,-59,33,127,49
154,2549,-60,43,106,-57,-92,-21,3,88
176,2186,-6,7,43,-107,-81,27,-19,132
157,1401,-17,-66,-84,-123,-13,128,83,158
155,353,-70,-96,-112,28,3,142,144,158
160,-594,-37,-57,-56,168,-30,57,96,130
107,-1485,-17,-13,-22,131,-42,2,2,73
71,-2248,-4,-9,-54,-40,-29,15,14,98
138,-2712,24,-11,-73,-209,-64,15,24,136
225,-2793,43,-32,-133,-335,-116,-6,-72,116
299,-2587,26,-46,-153,-411,-155,-45,-138,137
357,-2126,-59,-31,-97,-399,-190,-54,-63,185
295,-1416,-105,-29,-35,-328,-215,-64,-24,192
77,-720,4,11,44,-206,-203,-135,-132,68
-113,60,38,4,-1,-178,-172,-153,-152,-11
-158,937,47,-10,-87,-157,-114,-117,-129,-3
-189,1611,97,27,-101,-103,-16,-63,-147,-78
-210,1843,83,68,-70,-16,50,-45,-147,-127
-142,1693,2,58,-65,16,77,-60,-150,-69
-103,1203,-51,1,-88,-19,63,-48,-141,80
-101,292,-90,-47,-138,-93,47,0,-11,140
-4,-710,-12,-25,-118,-90,29,-38,-104,-4
65,-1622,38,-1,-42,62,78,-61,-229,-190
16,-2495,-3,-38,-3,170,149,37,-2,-218
-92,-3214,41,27,134,301,178,92,72,-281
-70,-3545,100,102,238,349,90,-35,-109,-328
34,-3451,60,82,164,148,-9,-74,-37,-199
45,-3177,-75,16,74,-66,-66,-46,97,-62
27,-2635,-47,-27,30,-121,-66,0,287,62
27,-1897,-6,-33,-1,-84,-40,-9,213,48
-46,-1151,8,-27,8,21,20,9,127,-38
-152,-256,-4,-14,24,129,103,23,52,-83
-219,323,-36,-29,-4,81,70,0,-63,-40
-224,-315,-99,-72,-75,-47,-27,40,-75,5
-168,-650,-96,-85,-94,-125,-51,164,51,1
-136,-717,-70,-69,-29,-110,-25,248,70,-101
-28,-1097,-70,-68,3,-55,-5,282,161,-88
200,-1838,-39,-45,-21,-68,-14,218,276,83
189,-2642,-42,-12,0,-58,-26,80,256,181
-25,-3373,4,9,36,-37,-61,-45,196,176
-125,-4021,43,30,46,-43,-60,-106,91,144
-176,-4517,100,81,71,-18,-6,-117,-86,68
-150,-4641,116,95,84,24,32,-92,-188,5
-36,-4403,90,69,78,57,28,-108,-260,-67
30,-3924,75,67,69,138,-25,-189,-348,-184
92,-3132,76,60,67,141,-71,-238,-315,-265
118,-2338,66,11,67,95,-27,-70,45,-117
88,-1487,81,-15,66,74,48,85,260,82
75,-507,4,-80,20,16,41,40,94,115
89,378,-205,-179,-78,-91,6,2,-8,121
48,835,-254,-175,-115,-135,-34,-14,-58,114
-6,728,-143,-95,-101,-123,-61,-79,-202,12
-32,278,-76,-54,-114,-121,-75,-145,-321,-96
23,-558,-62,-61,-81,-68,-44,-111,-271,-55
62,-1607,-71,-37,-12,-10,-11,-34,-133,64
1,-2547,-71,-36,-28,-33,-24,-54,-138,168
-88,-3417,-57,-70,-62,-84,-35,-67,-24,120
5,-4055,-33,-87,-28,-33,28,17,219,6
116,-4480,9,-60,4,25,59,116,387,-52
87,-4529,15,-27,21,25,23,138,358,-76
48,-4309,23,28,39,35,4,97,212,-46
57,-3830,-14,43,37,64,19,68,81,0
48,-3045,-17,28,22,97,71,77,48,-6
18,-2221,-40,42,22,113,85,74,76,0
10,-1206,-48,45,13,108,70,56,127,51
23,-232,21,27,12,89,57,40,157,83
-10,535,47,16,5,17,14,2,119,52
-62,789,29,42,2,-40,-9,-3,70,34
-63,597,-4,54,0,-90,-34,-19,-2,44
-61,80,35,19,-42,-103,-49,-44,-67,37
-139,-916,72,21,-20,-47,16,-48,-110,-52
-190,-1992,61,15,0,1,78,-32,-134,-106
-206,-2988,36,3,0,8,79,-28,-143,-100
-194,-3908,40,-13,-9,2,43,-78,-210,-42
-72,-4566,80,-23,-22,-7,-9,-146,-335,49
70,-4719,75,-32,-81,-65,-54,-206,-441,75
21,-4545,-75,-85,-124,55,-4,-253,-502,5
-70,-4263,-134,-113,-120,327,84,-202,-374,-38
-92,-3777,-196,-152,-187,323,149,-80,-200,-83
-167,-2255,-121,-42,-31,114,116,-50,-259,-382
-144,-693,-78,14,153,117,63,36,58,-274
-22,614,-78,-25,128,-145,-108,122,400,17
82,-189,-82,-73,123,-224,-174,126,453,267
144,-1435,-24,0,246,-47,-72,110,353,383
163,-1631,96,129,341,41,-3,119,306,366
238,-2019,116,161,288,26,-4,127,307,319
208,-2752,149,159,176,32,54,124,198,145
79,-3154,93,154,52,67,136,133,143,-80
166,-3123,134,110,-85,-19,127,100,68,-171
264,-2950,122,28,-163,-98,101,38,-77,-74
102,-2776,52,-1,-152,-127,88,-8,-208,11
-95,-2600,44,-2,-115,-184,13,-65,-232,32
-210,-2435,20,-17,-107,-222,-54,-3,-23,74
-233,-2271,3,-27,-112,-154,-31,64,138,67
-122,-2041,-56,-104,-178,50,-30,51,211,34
-133,-1737,-13,-82,-93,465,14,26,230,-16
-273,-878,84,44,114,692,53,11,230,-82
-410,442,55,67,158,533,67,-42,41,-216
-257,1593,3,19,44,153,16,-140,-186,-270
37,2258,-4,-6,-43,-224,-85,-149,-209,-168
152,2338,66,17,90,-363,-55,-45,-109,0
132,2018,-58,-12,256,-294,-27,20,-69,121
128,1254,-205,-83,220,-221,-79,8,-109,155
241,300,-135,-89,83,-224,-130,13,-173,216
231,-669,6,-37,-71,-300,-204,-17,-295,159
94,-1582,139,40,-124,-333,-248,-69,-406,22
16,-2053,146,53,-168,-323,-212,-42,-335,-3
31,-2114,126,64,-158,-212,-47,14,-66,91
91,-2032,130,74,-91,-42,86,58,188,163
153,-1860,24,-5,-114,85,111,122,403,193
176,-1419,-26,-49,-72,228,161,159,436,134
91,-685,13,19,49,280,213,103,193,35
16,256,-16,45,101,154,197,3,-105,58
-47,1506,-17,51,89,35,99,-112,-372,80
-110,2561,11,27,66,-58,6,-195,-505,43
-132,3282,-120,-46,20,-68,-30,-214,-462,-15
-135,3309,-64,-83,-69,-65,-71,-186,-251,-101
-106,2263,55,-38,-116,-93,-98,-103,-103,-174
-26,1188,-132,-93,-142,-90,-58,30,71,-117
159,303,-228,-111,-79,-15,-2,123,202,32
233,-674,-92,-46,-18,15,15,195,243,74
148,-1511,-43,-54,-45,-23,16,314,598,194
90,-1858,-56,-71,-57,-6,49,374,830,246
9,-2199,-39,-24,17,93,99,262,669,177
-10,-2238,-23,40,66,232,134,105,297,51
34,-2115,113,60,23,239,143,20,78,8
67,-1980,147,66,-36,89,81,-50,-85,-63
-35,-1677,88,29,-121,-59,13,-60,-118,-255
-278,-1059,6,-12,-190,-91,8,17,78,-354
-284,26,-46,-44,-216,-128,-2,70,111,-310
-9,1497,-36,-47,-210,-111,-104,-43,-136,-278
201,2761,77,62,-42,103,-131,-203,-371,-296
183,3436,101,129,145,190,-37,-209,-334,-245
124,3477,60,132,257,94,16,-96,-112,-134
99,3092,136,180,351,21,87,33,13,-78
100,2334,144,181,346,-90,41,74,-14,0
105,1428,21,76,191,-183,-36,74,25,137
48,594,-7,-2,5,-180,-45,100,270,221
11,-162,-14,-46,-151,-164,-66,95,276,244
-15,-867,-1,-21,-147,-90,-58,57,99,192
-50,-1220,73,46,-53,25,-16,42,45,95
-99,-986,93,65,17,129,34,3,-55,-30
-84,-512,-33,29,18,146,53,-16,-137,-118
-67,206,-40,56,27,161,81,-26,-185,-167
-100,1182,62,75,30,315,109,-96,-368,-223
-198,2150,5,15,-53,424,109,-153,-481,-249
-341,3131,-98,-102,-247,268,72,-129,-391,-260
-446,4175,-125,-171,-386,62,-4,-168,-417,-344
-478,5001,-140,-177,-310,108,-69,-119,-203,-356
-455,5338,-107,-97,-100,243,-128,-26,215,-222
-390,5224,18,73,199,278,-134,-73,129,-226
-133,4839,44,109,380,238,-76,-104,-106,-188
123,3959,-9,68,451,213,45,-57,-193,3
190,2925,-98,81,507,144,90,-45,-265,189
157,2111,-126,75,470,-9,44,-40,-220,321
189,1402,60,137,362,-30,7,32,64,366
354,829,170,118,42,-97,38,185,417,370
327,531,96,-13,-306,-253,50,186,464,281
183,601,10,-83,-387,-282,60,146,390,161
99,950,-37,-90,-317,-264,33,154,332,61
-22,1616,35,-3,-127,-219,-18,90,143,-67
-6,2525,6,34,6,-205,-70,45,52,-46
164,3506,-35,16,0,-146,-99,119,163,31
187,4647,111,16,-65,-63,-75,201,192,30
8,5664,139,41,-88,6,-13,173,25,-43
-106,6371,96,11,-65,-8,-14,66,-123,-78
44,6588,41,-65,-67,-80,-74,-29,-175,-17
352,6548,-153,-157,-121,-172,-137,-129,-242,76
484,6141,-412,-251,-249,-259,-179,-222,-447,161
340,5188,-334,-263,-317,-223,-178,-261,-510,199
52,4175,-149,-147,-179,-101,-186,-334,-517,24
-170,3355,-38,-38,-22,14,-178,-322,-264,-99
-275,2613,25,-19,13,88,-68,-162,94,-121
-278,2038,90,28,76,163,90,47,519,-74
-179,1820,82,69,145,329,359,355,855,54
47,1945,19,93,307,566,516,409,582,81
230,2274,15,98,354,641,449,274,151,33
156,2810,28,70,248,540,270,169,-27,29
1,3452,11,-2,42,188,39,87,-32,132
-101,4051,2,-20,-180,-278,-175,0,26,261
-174,4808,-8,-22,-298,-518,-275,-21,72,246
-291,5522,-76,-3,-229,-452,-251,-29,-17,25
-374,5822,-40,35,-31,-297,-195,-93,-81,-244
-304,5667,61,131,156,-104,-109,-123,-43,-408
-170,5276,185,186,234,104,23,-94,-64,-423
-60,4473,192,161,158,155,31,-187,-270,-417
58,3511,169,102,-22,149,-15,-274,-343,-332
127,2991,83,74,-36,193,-46,-264,-351,-163
147,2419,-3,11,-34,182,-15,-96,-250,60
62,1593,-30,-33,-22,130,34,67,-392,114
-32,986,-100,-99,-81,55,60,31,-766,65
-58,761,-62,-123,-94,-61,30,-149,-839,60
-102,777,-28,-117,4,-153,17,-179,-638,-42
-170,1052,-150,-119,168,-115,-18,-94,-228,-169
-159,1607,-146,-24,299,194,42,143,624,-126
-18,2294,48,113,286,377,98,400,1228,-20
101,3105,137,118,139,247,0,342,992,33
130,3850,117,59,74,74,-45,199,544,69
133,4357,78,30,73,-15,-50,91,317,137
133,4411,146,75,57,-159,-106,77,379,214
136,4071,246,156,22,-313,-152,126,512,261
66,3495,212,119,-45,-337,-134,151,443,219
40,2620,73,9,-136,-325,-104,123,299,135
234,1741,-10,0,-129,-263,-89,49,97,129
364,911,-34,0,-59,-42,8,38,-24,219
261,128,-2,11,-31,27,14,-1,-97,230
160,-417,213,99,-34,-101,-95,-139,-244,149
106,-745,226,77,-32,-162,-91,-173,-317,107
35,-678,84,30,-3,-127,-23,-136,-305,25
117,-80,-161,-119,-68,-140,-9,-40,-58,93
213,632,-218,-150,-53,-35,51,39,30,193
142,1317,-117,-115,-48,31,73,-9,-152,137
-50,1980,-46,-97,-47,30,27,-49,-211,-37
-286,2745,-85,-98,-30,113,57,2,-54,-192
-328,3456,-196,-74,-25,167,63,-27,-112,-161
-163,3849,-131,-73,-53,107,11,-80,-152,-10
-123,3802,61,-38,-47,40,-35,-82,-106,11
-97,3529,167,-43,-84,-106,-177,-125,-10,-25
189,3022,117,-91,-164,-269,-248,-188,-65,-57
374,2263,-76,-130,-175,-248,-146,-64,171,45
263,1678,-107,-63,-70,-65,26,115,247,59
-28,954,20,53,58,71,129,199,113,-149
-281,168,-22,100,83,89,114,130,-80,-379
-282,-370,-1,94,10,20,44,10,-191,-327
-300,-628,86,63,-71,10,12,-66,-194,-191
-337,-609,85,77,-77,269,26,-154,-274,-154
-310,-310,-1,57,-73,474,32,-171,-239,-86
-205,245,-148,-31,-129,341,5,-114,-56,8
-84,831,-190,-130,-129,162,21,-101,27,20
