-14,2039,11,0,12,-8,-37,-33,-19,-7
-12,1951,0,-4,-6,-4,-18,-22,11,28
-5,1587,-3,-13,-25,3,14,-14,24,87
-8,922,-29,-17,-26,4,13,-13,12,101
-3,36,-65,-20,-32,-9,-1,-11,-5,93
-2,-759,-54,2,-25,-1,15,9,-15,63
39,-1438,26,13,-27,0,31,-3,-28,27
88,-2021,15,-12,-56,-43,-4,-32,-6,57
61,-2478,20,-42,-69,-63,-10,-34,85,122
19,-2563,29,-26,-39,-32,11,-1,130,119
1,-2371,19,-4,-11,-8,22,10,77,65
-8,-1977,-42,-4,0,12,19,-8,4,21
-12,-1331,0,-6,-1,20,3,-15,-22,3
-19,-639,36,-9,-2,11,-7,-23,-26,17
-32,124,20,-20,0,-8,-4,-18,-10,39
-68,944,17,-19,9,-10,-6,-16,-17,26
-92,1586,10,-23,7,12,-13,-13,-10,26
-98,1802,-35,-28,-2,14,-7,-5,-2,59
-80,1648,-120,-36,-3,12,0,9,5,68
-63,1245,-62,-30,10,13,6,14,10,43
-74,493,14,-11,22,16,44,2,18,18
-29,-335,29,-3,14,5,46,-12,-7,42
22,-1082,-48,2,6,13,39,-13,-8,68
64,-1694,-38,4,-5,6,44,-23,-11,58
127,-2182,-4,6,-3,-9,32,-47,-20,78
117,-2481,-32,13,6,7,34,-39,-12,116
109,-2425,44,1,-1,-1,37,-43,-13,154
130,-2121,41,-19,-14,-20,21,-33,-19,168
120,-1639,24,-37,-16,-20,17,15,-14,144
36,-1026,17,-33,-18,-23,18,81,-1,60
-10,-360,22,-27,-22,-23,1,95,-23,-71
-17,483,16,-33,-26,-22,-5,51,-34,-78
-46,1328,11,-24,-23,-19,-31,1,-26,-44
-106,1882,-18,-22,-25,-15,-62,-41,2,-13
-132,1970,-16,-11,-3,-8,-55,-62,50,-7
-123,1756,-3,16,17,10,-35,-71,1,-24
-100,1235,5,13,13,13,-33,-53,-46,-43
-80,395,11,10,13,4,-14,-37,-55,-74
-63,-417,26,7,10,3,1,-31,-45,-104
-20,-1130,40,27,19,11,12,-9,-12,-138
38,-1715,57,55,37,20,25,-3,-25,-163
43,-2176,60,63,47,17,35,2,-17,-116
37,-2293,54,44,38,3,51,2,11,-56
65,-2111,19,17,1,-21,35,7,60,5
70,-1758,-9,-12,-21,-30,-7,18,77,54
47,-1158,-5,-18,-3,-17,-7,18,38,27
18,-466,-10,-19,-9,-18,-2,8,17,47
-18,258,-14,-24,-21,-17,-15,2,45,113
-110,1054,-35,-29,-21,-8,-26,11,59,103
-218,1752,-51,-22,-21,8,-39,14,64,64
-221,2122,-50,-16,-15,11,-45,29,40,23
-27,2105,-21,15,11,24,-34,28,-17,-89
138,1821,2,38,14,27,-35,10,-45,-130
83,1118,-33,31,15,16,-28,1,-25,-58
49,215,5,41,30,22,-6,19,-13,-57
81,-560,52,38,28,22,-1,33,-4,-109
167,-1202,65,25,30,17,4,26,-5,-124
204,-1737,56,18,34,7,-4,0,-23,-70
125,-2079,50,13,36,-2,5,-8,-27,-32
-8,-2096,11,-3,18,-5,21,3,-26,-13
-87,-1908,-24,-16,-2,-13,32,11,-26,-17
-88,-1497,-24,-21,-8,-17,28,5,-84,-68
-115,-877,-51,-10,17,-18,23,-22,-94,-116
-123,-196,-42,4,29,-8,19,-43,-77,-113
-81,573,0,3,17,-5,2,-14,-12,-65
0,1403,4,2,25,-9,-10,1,4,8
77,2075,0,16,24,5,-31,-17,-5,102
43,2267,14,41,35,32,-12,-13,4,107
-143,2060,-13,16,24,39,-13,9,3,12
-254,1588,-110,-13,-4,18,-18,10,0,-56
-222,776,-144,-6,9,6,2,18,38,-75
-111,-46,-4,25,33,11,16,26,46,-60
34,-727,53,35,33,0,9,23,51,-31
106,-1302,63,29,24,-18,8,14,28,-3
176,-1763,5,7,1,-32,-2,-4,11,28
136,-2016,-5,-1,-6,-28,-10,3,7,30
10,-1957,11,-16,-9,-24,5,22,10,28
-23,1074,44,27,15,18,22,-28,-35,-52
-72,1936,50,36,21,30,18,-59,-70,-94
-110,2529,32,39,17,45,10,-68,-81,-76
-107,2650,15,22,4,43,-7,-62,-88,-50
-120,2486,-5,0,-21,34,-20,-22,-15,-36
-93,2018,-23,2,-10,27,-1,57,18,15
-47,1282,3,12,-8,18,23,158,23,58
-17,597,0,1,-16,0,29,219,48,60
67,64,-23,-12,-25,-15,28,191,132,65
157,-367,-52,-15,-26,-24,14,101,140,55
132,-704,-17,0,-13,-20,7,30,92,98
70,-751,22,-6,-16,-19,-7,-12,69,213
90,-518,28,6,-11,2,-7,-18,61,285
97,-103,23,21,-2,9,2,-1,60,294
46,510,20,13,-3,14,6,21,47,200
16,1183,20,8,0,18,10,27,29,85
-3,1885,1,21,-2,26,4,6,-13,-21
-42,2691,14,32,15,46,11,-5,-38,-117
-87,3415,0,14,-5,25,9,-32,-44,-180
-100,3709,-77,-27,-57,-34,-52,-70,-54,-241
-81,3552,-175,-22,-57,-36,-66,-52,-38,-236
-85,3112,-178,-7,-34,-13,-33,-34,-28,-136
40,2338,-150,-7,-37,-12,-14,-32,-7,-27
120,1407,-84,-13,-54,-40,-32,-56,-25,8
36,500,0,-27,-62,-54,-37,-48,-24,62
-20,-292,12,-34,-54,-51,-15,-14,21,84
-30,-962,-3,-26,-56,-51,28,15,27,53
-51,-1439,27,-2,-23,-14,52,55,47,27
22,-1510,78,21,23,21,55,74,43,-27
147,-1354,125,42,49,36,68,59,-4,-148
195,-990,120,53,35,25,53,38,-10,-111
78,-474,78,32,18,33,49,31,10,1
-38,140,39,9,27,38,74,11,5,17
-38,943,3,5,38,23,59,-32,-27,-30
-12,1791,0,15,39,24,30,-49,-40,-66
9,2450,-44,8,22,30,16,-40,-39,-28
21,2663,-47,-14,-3,14,11,-43,-24,51
28,2499,0,-29,-23,0,-9,-51,-15,115
-14,2080,26,-19,-27,2,-25,-63,-37,101
-83,1403,26,-26,-21,10,-17,-69,-62,20
-86,553,6,-47,-22,3,-7,-51,-94,-34
-11,-217,-3,-47,-27,-10,-3,-12,-33,-25
26,-826,9,-34,-26,-11,10,42,21,-3
33,-1468,-23,-16,-19,-12,31,102,45,-4
53,-1730,-37,9,6,-13,16,126,41,15
74,-1669,-58,14,27,-15,19,109,21,50
13,-1481,-19,13,39,-1,26,47,-10,15
-29,-1074,71,26,36,-10,-7,-23,-32,-19
-35,-508,48,19,37,-3,-38,-53,2,14
-32,103,14,-10,32,4,-25,-22,50,43
-37,862,-47,-16,14,17,-17,18,69,32
-50,1575,-2,-1,34,24,-6,14,45,47
-42,1993,-27,12,36,21,5,0,8,73
-78,1928,-54,21,26,18,32,8,38,44
-103,1644,12,-8,7,-6,22,-5,20,-43
-4,1083,17,-38,-6,-20,4,-29,-37,-101
56,237,7,-41,-7,-20,14,-30,-32,-49
76,-608,-39,-35,-11,-29,14,-28,18,26
158,-1348,-29,-48,-27,-45,18,-28,11,124
176,-2011,-8,-55,-40,-59,19,-27,20,220
137,-2559,40,-37,-20,-49,34,-11,52,232
80,-2728,57,-9,-2,-44,43,-11,37,153
21,-2614,57,1,-3,-31,16,-16,-21,45
-21,-2290,57,1,-4,-15,-17,-17,-34,-26
-51,-1697,41,-1,-3,-13,-29,-10,-2,-44
-83,-1049,23,-25,-3,-10,-26,-15,13,-42
-75,-311,15,-28,-15,-9,-30,-14,16,21
-83,536,11,-12,-4,7,-26,11,20,26
-34,1284,16,2,25,41,6,18,-12,-55
13,1621,33,19,40,60,29,7,-29,-104
23,1579,28,12,26,47,39,-1,-22,-78
20,1286,22,2,15,22,35,-11,-19,-54
7,643,21,5,16,15,41,6,-12,-42
-11,-98,-40,7,1,5,26,33,5,-23
1,-730,-87,-6,-18,-14,-8,14,-16,5
-10,-1317,-8,-11,-15,-26,-26,9,-20,0
35,-1787,-7,3,-5,-24,-7,39,7,12
105,-2014,34,3,-4,-23,8,30,46,26
154,-1918,59,-11,-12,-28,-4,8,46,40
120,-1662,53,-3,-6,-24,-14,0,8,63
30,-1228,40,7,7,-8,-8,0,15,86
25,-596,26,17,12,14,-8,18,49,189
1,74,41,42,30,38,24,51,71,246
-90,880,35,20,21,25,40,35,42,153
-118,1740,0,-2,-3,4,-3,-26,-19,29
-137,2338,-41,-15,-23,-8,-29,-40,-5,-45
-167,2448,-31,-33,-38,-16,-33,-39,-24,-141
-116,2284,-17,-20,-30,4,-29,-23,-46,-200
-104,1851,3,3,-2,32,-6,3,-25,-153
-55,1126,9,29,4,20,-16,-11,-8,-75
31,386,-68,16,9,-2,-32,-42,-37,-29
43,-293,-96,21,23,-10,-22,-56,-69,11
39,-933,21,26,25,-17,-30,-46,-43,66
56,-1419,43,12,16,-23,-34,-44,-17,96
50,-1532,34,7,3,-26,-31,-42,-40,61
2,-1341,16,-15,-3,-29,-24,-35,-61,-8
-67,-968,16,-26,-11,-48,-19,-16,1,-113
-82,-371,51,-5,5,-41,-6,-16,60,-182
-50,345,70,33,24,-17,-7,-33,24,-162
10,1084,54,33,10,-10,-21,-37,-18,-110
95,1942,51,29,-3,0,-3,-37,-10,-89
96,2677,21,19,-8,-2,10,-11,4,-67
-21,3030,-42,2,-19,-4,29,25,22,-16
-106,2950,-105,-30,-48,-13,18,36,86,71
-142,2611,-107,-38,-43,-7,13,25,82,85
-86,1986,-52,-16,-24,-8,38,5,61,24
-14,1109,-30,-4,-9,-3,60,13,37,29
56,286,-97,18,5,22,76,29,38,28
151,-389,-97,0,-14,12,61,6,14,46
167,-949,-20,-15,-43,-28,29,6,79,113
125,-1364,6,-6,-44,-25,9,28,120,150
166,-1400,42,17,-28,-18,0,7,69,125
161,-1138,72,32,-17,-10,-28,-20,-20,71
92,-687,63,35,5,18,-15,-19,-43,-37
29,216,52,37,29,57,19,2,-47,-198
-11,2010,49,44,21,57,16,-5,-36,-221
-36,3382,51,35,6,55,-8,-43,-72,-222
-21,4243,33,24,-4,41,-33,-72,-120,-162
-26,5005,12,13,-25,8,-67,-92,-121,-92
-65,5235,-6,-4,-45,-12,-81,-92,-113,-64
-32,5003,-21,-8,-54,-25,-55,-46,-53,-42
-47,4606,-6,7,-30,1,-10,33,-4,-65
-56,3824,38,31,6,22,25,129,12,-137
38,2966,31,31,-6,15,59,179,46,-141
174,2057,5,21,-16,7,67,144,45,-76
166,1177,0,22,9,22,79,92,12,-42
134,444,10,22,16,23,49,31,11,2
138,-47,33,18,10,14,0,-29,50,94
77,-253,31,12,7,9,-16,-29,45,160
-39,-279,-7,-1,3,-11,-33,-20,13,199
-88,-13,-44,-35,-14,-23,-55,-47,0,158
-33,440,-39,-46,-24,-24,-64,-56,2,87
-2,891,-16,-34,-20,-3,-55,-39,15,-70
-49,1451,13,-7,9,43,-19,-14,-25,-223
-85,2041,22,37,55,83,24,-5,-24,-199
-57,2440,29,34,65,76,47,-11,-19,-133
-54,2374,3,9,41,47,65,-10,-25,-90
-130,1986,-24,0,26,43,41,-19,-9,-12
-152,1345,-11,-4,26,50,11,-23,-16,24
-114,416,5,-3,25,36,-6,-25,-35,-25
-74,-509,-8,-14,10,2,-12,5,-12,-125
-46,-1310,-7,-11,8,-7,-8,88,-11,-165
-5,-1962,33,0,5,-13,-11,106,-43,-160
29,-2530,18,-20,-2,-32,-15,89,-20,-97
70,-2816,-3,-23,-18,-37,-13,54,2,-11
99,-2794,-1,-6,-17,-28,-6,4,9,39
108,-2563,9,0,-14,-23,0,-56,-14,56
113,-2055,22,-6,-16,-14,-2,-78,-26,83
84,-1451,23,0,-16,-12,3,-57,-31,58
42,-841,-40,6,-15,-8,0,-43,-47,18
42,-113,-163,-3,-16,-2,-24,-56,-85,0
18,541,-126,-18,-25,3,-34,-38,-41,-6
-24,851,-18,-19,-16,-6,-16,-21,13,-26
-35,762,4,-6,0,0,-22,-29,22,-31
-41,453,0,-19,-12,5,-25,-11,21,-3
-35,-190,-14,-25,-24,-1,-28,0,44,14
1,-1039,-5,-19,-15,9,-6,14,48,27
84,-1831,-12,-36,-35,-11,11,26,47,89
99,-2492,-22,-41,-31,-25,43,53,63,116
36,-3065,-1,-15,-10,-7,85,79,56,64
-40,-3455,6,-16,-9,-14,81,95,57,10
-30,-3445,-16,-33,-6,-32,73,78,61,-23
23,-3195,-53,-13,3,-29,62,49,24,-41
62,-2759,-17,-3,3,-34,14,19,-1,-16
78,-2144,17,0,4,-35,-12,-8,-34,6
66,-1527,19,7,-3,-22,-13,-12,-52,37
19,-828,3,9,1,-11,-14,-6,11,83
-45,-65,-3,18,17,-8,-21,10,68,80
-80,553,-1,14,15,-4,-28,5,72,41
-70,748,-47,12,-1,0,-27,-4,41,6
-50,625,-22,6,-11,0,-17,-6,19,-62
-63,212,-11,4,0,21,19,25,16,-144
-43,-521,-68,3,23,31,45,25,-14,-140
-8,-1320,-38,17,31,35,54,-4,-28,-114
5,-2026,53,55,52,54,36,-18,-39,-112
-36,-2631,85,88,70,50,4,-28,-57,-88
-78,-3148,57,47,50,22,16,-13,-72,-66
-51,-3371,15,12,21,-2,50,11,-40,-39
23,-3212,20,6,1,-11,57,31,-29,-13
33,-2882,19,15,4,-13,58,38,-19,-28
48,-2313,-15,-6,0,-15,35,23,-18,-59
58,-1591,-65,-43,-13,-20,1,0,-15,-39
-4,-881,-53,-59,-8,-19,-24,-15,-19,17
-41,-28,-50,-50,13,4,-24,-4,-28,44
-67,799,-35,-28,37,10,-19,-9,-35,30
-84,1341,-72,-16,38,22,-6,-14,-30,20
-42,1432,-61,-37,30,27,-11,-24,-44,-1
-27,1271,-4,-29,21,22,-43,-23,-81,-29
-56,799,-5,-36,6,1,-55,-28,-40,64
-43,0,-5,-39,-6,-25,-26,-38,0,142
15,-749,7,-30,-18,-39,-42,-37,70,159
51,-1392,24,-13,-11,-26,-18,26,171,143
63,-1940,19,-1,0,-2,32,84,204,91
53,-2325,3,-3,11,11,52,87,157,70
-47,-2342,-37,0,24,30,66,75,97,61
-141,-2060,-95,7,40,60,76,59,42,-1
-52,-1517,-32,33,55,65,47,4,-59,-189
56,-700,62,54,58,53,7,-43,-110,-372
72,263,70,43,50,39,-9,-52,-145,-285
-30,1339,62,20,34,27,12,-50,-145,-165
-71,2389,50,17,26,14,11,-41,-96,-125
-57,3265,0,14,5,1,-36,-39,-94,-83
19,3904,-15,-4,-4,-9,-57,-54,-85,-58
69,4198,-6,0,-4,-9,-53,-53,-58,-70
46,4011,-89,15,4,1,-44,-17,-1,-34
-6,3398,-134,6,13,11,-32,5,23,8
-56,2506,-108,-1,-2,-4,-22,-6,18,5
-79,1720,-93,11,-23,-11,10,-1,44,23
-46,1149,29,29,-9,-7,14,-1,36,54
-6,668,51,24,-4,-20,6,0,36,55
74,345,17,13,-12,-37,-17,19,59,35
185,288,13,-11,-27,-36,-39,22,58,52
158,376,7,-33,-22,-21,-33,43,88,91
100,642,0,-39,-14,-1,-12,58,93,111
70,1150,8,-35,-13,-8,-33,27,63,117
23,1721,18,-33,-16,-29,-52,-10,46,99
-62,2350,16,-17,-10,-15,-48,-29,-6,60
-78,2978,15,4,-10,2,-56,-24,-33,40
-64,3398,5,0,-21,4,-57,-31,-61,7
-89,3548,-1,-21,-19,14,-61,-40,-72,-36
-79,3385,-1,-16,-16,23,-63,-25,-82,-28
0,2774,-25,-15,-7,20,-54,6,-26,1
30,1801,11,-17,-9,14,-32,8,-14,-26
-89,787,9,-22,-26,0,-33,4,-29,-85
-102,-99,-27,-35,-36,-8,-5,30,2,-62
-5,-811,-65,-26,-33,-13,24,43,53,17
76,-1430,-131,-18,-25,-9,27,36,63,63
83,-1791,-95,-12,-10,-8,6,31,19,41
16,-1810,0,0,10,-6,1,20,-5,-5
-4,-1621,18,3,9,1,-9,17,-30,-27
0,-1174,16,6,-1,8,-9,7,-26,-15
30,-600,38,-10,-8,-2,-21,-7,-18,22
97,34,18,-20,-19,-6,-42,-14,4,94
127,754,0,-20,-27,3,-33,4,12,133
76,1429,6,-6,-22,7,-6,30,58,85
24,1803,-25,-10,-15,0,-12,33,80,43
-9,1662,-75,-4,-21,1,-4,14,51,14
-52,1247,-15,21,-10,25,9,-5,-9,-9
-78,569,51,37,4,37,7,-16,-43,13
-108,-369,52,41,18,31,5,-13,-52,-25
-134,-1272,54,25,41,36,35,5,-36,-94
-111,-2036,74,18,40,30,49,35,27,-122
-48,-2666,82,28,35,19,60,44,18,-100
12,-3157,14,19,29,15,43,49,6,-36
49,-3299,-81,-12,21,0,20,28,35,8
52,-3096,-8,-43,3,-22,-9,-10,29,44
80,-2689,20,-52,-4,-27,-28,-28,3,73
68,-2103,16,-32,-5,-14,-34,-27,-15,39
37,-1377,48,-13,8,-16,-32,-55,-30,17
33,-591,34,-21,13,-3,3,-59,-32,18
50,259,35,-11,9,9,29,-50,-29,-8
82,954,87,32,22,14,-2,-47,-24,-80
36,1247,86,46,26,16,-20,-15,5,-16
-43,1120,7,12,13,15,-11,49,48,122
-74,774,-48,-4,7,17,19,135,58,98
-117,119,21,14,19,18,44,182,17,-39
-103,-576,42,21,13,15,57,117,-28,-151
1,-1086,75,26,16,5,54,17,-58,-227
75,-1624,104,40,13,-11,26,-44,-32,-149
106,-1990,45,3,-34,-45,-8,-57,26,71
103,-2159,9,-6,-56,-56,-10,-48,59,222
81,-2138,58,3,-44,-37,5,-33,34,209
150,-1876,57,-3,-45,-32,5,-30,-14,189
178,-1195,52,2,-21,-28,-14,-37,-32,148
91,-313,27,-11,-21,-33,-27,-34,-28,105
24,479,-15,-28,-34,-33,-26,-10,4,121
41,1526,-7,-23,-43,-32,-31,-24,-26,82
44,2523,5,-12,-42,-32,-42,-67,-117,-28
-6,3126,-7,16,-12,-2,-19,-76,-139,-90
-69,3268,20,35,13,27,4,-61,-144,-106
-22,3352,42,43,35,34,-11,-50,-132,-121
52,3099,39,31,34,24,-36,-41,-127,-97
31,2255,-51,-4,0,-18,-5,-21,-39,-56
-47,1323,-166,-27,-26,-37,3,27,91,-32
-122,516,-94,-23,-18,-26,2,58,97,-22
-88,-177,0,-10,-3,-18,17,33,33,14
-45,-715,-13,18,13,4,37,-1,-64,48
-34,-727,-44,40,25,19,51,-29,-60,78
-6,2013,32,34,27,25,48,-43,-81,81
23,6108,40,7,12,20,27,-24,-23,60
-6,6663,-20,-7,-14,12,29,4,70,47
-76,6316,-23,0,-20,4,20,2,121,-17
-70,6175,8,-2,-8,12,0,-16,62,-30
-1,6252,-2,-27,-21,-9,-42,-55,-10,39
35,6331,-20,-23,-25,-5,-55,-32,3,48
48,6258,-2,-15,-6,8,-62,18,12,63
75,5952,25,-5,5,18,-57,82,24,58
118,5651,26,5,4,18,-24,166,90,27
125,5273,25,3,-1,7,0,196,158,21
-16,4868,35,14,12,15,9,138,138,32
-237,4456,46,39,40,28,6,63,79,-11
-335,3935,45,50,37,11,-3,-3,51,-40
-262,3378,44,35,22,-8,-4,-27,76,-10
-184,2866,47,38,13,2,21,-6,67,1
-86,2552,32,33,19,5,37,-2,14,-42
154,2684,4,-3,1,-15,17,-47,-78,-107
189,2926,-33,5,10,-6,17,-53,-92,-90
44,3151,-19,5,17,-2,11,-36,-28,-20
-50,3066,-44,-9,13,-11,-25,-68,-102,-26
-49,2947,-145,-14,23,4,-19,-127,-250,-41
-55,2812,-124,-23,30,28,21,-148,-379,43
-93,2658,-58,-25,39,48,73,-177,-503,160
-95,2494,-34,-19,46,61,89,-248,-687,168
-81,2332,-40,-39,9,22,33,-311,-764,99
-70,2189,-76,-74,-50,-34,-33,-307,-566,-8
-46,2063,-40,-52,-51,-46,-40,-235,-215,-96
-46,1938,-42,-36,-38,-45,-27,-23,295,-176
-2,1812,-91,-15,-21,-39,-12,257,790,-168
99,1704,23,22,19,-27,-47,294,841,-121
129,1593,36,40,49,19,-41,289,761,-73
98,1496,-5,43,75,54,-10,224,562,-35
99,1423,10,35,81,56,20,78,276,-10
60,1362,53,35,81,47,60,10,106,5
17,1276,69,47,70,41,60,-7,12,-25
40,1214,48,25,32,20,24,-24,-51,-41
47,1145,4,-33,-16,-15,-17,-38,-61,35
43,1074,-31,-59,-58,-20,-25,-59,-85,200
36,1019,-26,-57,-85,-12,4,-96,-215,268
15,964,-47,-62,-94,31,43,-116,-343,246
-7,894,-106,-76,-83,64,29,-172,-406,194
-37,841,-98,-59,-45,83,18,-214,-292,59
-125,789,-24,-21,-2,130,74,-132,-60,-155
-187,743,32,32,43,202,136,-45,54,-343
-105,704,56,67,63,273,142,20,198,-385
3,668,-12,40,51,305,134,116,426,-268
41,611,-101,-35,0,288,85,138,480,-139
-42,350,-143,-89,-33,279,69,115,375,-101
-174,-371,-76,-104,-15,258,70,72,237,-74
-311,-115,-65,-66,65,237,97,42,94,-67
-328,498,-22,9,168,168,87,24,4,-83
-235,555,26,52,226,106,29,7,-4,-152
-145,523,22,20,194,65,15,0,-94,-212
-7,470,-26,-32,101,-31,4,-50,-291,-146
15,440,-68,-39,42,-82,0,-87,-413,-90
-73,437,-24,-21,23,-107,-28,-126,-491,-112
-69,424,-63,-8,-11,-168,-65,-184,-519,-102
84,394,38,23,-64,-216,-100,-178,-349,-26
282,364,140,29,-112,-263,-118,-76,1,53
376,342,140,15,-146,-349,-184,29,201,140
327,316,127,5,-138,-374,-183,92,267,305
347,304,116,54,-89,-347,-167,12,166,431
265,279,202,131,-19,-281,-119,-74,-19,356
76,252,251,165,13,-224,-56,-3,-51,269
16,229,194,93,-60,-272,-70,5,-150,354
25,209,155,48,-116,-315,-140,-186,-376,290
-14,206,127,37,-123,-267,-117,-161,-262,137
-80,205,21,-20,-152,-227,-57,31,133,0
-93,194,21,-37,-163,-206,-33,104,369,-149
-17,173,39,-38,-180,-209,-58,167,576,-223
45,168,53,-21,-141,-155,-11,376,1010,-162
50,157,81,38,-47,-73,17,369,863,-166
41,157,68,46,8,-40,-30,160,347,-154
99,154,80,39,1,-41,-84,23,96,-35
60,132,18,-3,-48,-23,-67,-5,66,93
-67,108,-65,-71,-97,50,24,29,75,123
-138,108,-92,-93,-105,99,113,50,13,88
-144,94,-70,-65,-71,131,161,60,-15,46
-126,71,-105,-64,-47,135,197,102,38,-37
-165,6,-127,-53,0,137,171,102,-22,-160
-176,-156,-173,-52,6,89,114,118,57,-114
-154,-465,-159,-72,-32,28,51,65,97,-10
-156,-823,-81,-79,-45,22,13,-9,11,50
-87,-1190,-54,-69,-29,21,0,-43,-130,85
92,-1490,40,-3,24,32,-23,-104,-231,93
223,-1557,125,70,90,45,-47,-151,-258,74
338,-1679,123,83,94,29,-72,-227,-281,63
317,-1799,110,106,102,39,-105,-280,-331,52
185,-1950,143,125,117,22,-120,-273,-241,8
88,-2592,100,49,63,-32,-133,-190,19,-25
-36,-4987,-33,-72,-21,-73,-109,-38,147,-34
-104,-8250,-56,-147,-111,-148,-113,30,177,-51
-46,-10475,48,-111,-133,-206,-168,-6,140,-47
88,-11513,44,-67,-115,-172,-119,2,115,77
159,-12556,51,-20,-60,-130,-86,-46,-1,143
92,-14668,102,37,7,-79,-37,-42,-73,87
-40,-15876,134,42,48,-23,33,-1,-65,-5
-94,-15240,107,11,54,18,97,50,96,-72
49,-14337,28,-79,-37,-13,110,169,407,-45
251,-13476,-29,-152,-132,-52,70,172,421,47
228,-12657,-39,-159,-162,-61,58,95,223,141
137,-11901,-73,-178,-173,-60,39,40,81,203
47,-11205,-111,-180,-140,29,67,29,17,168
-92,-10530,-191,-116,-44,132,134,60,2,-19
-153,-9872,-227,-62,41,213,167,60,-96,-214
-78,-9260,-129,-73,46,204,107,26,-199,-219
-106,-8679,-25,-28,88,237,86,3,-210,-236
-174,-8072,24,21,102,178,30,-76,-141,-290
29,-7429,46,0,21,9,-82,-166,-168,-282
176,-6770,34,24,25,-35,-105,-158,-185,-133
91,-6308,-21,53,89,12,-52,-82,-133,-4
43,-5794,-54,44,90,6,-46,-81,-212,100
8,-5482,-53,33,94,14,-13,-127,-349,161
-90,-5551,7,4,70,6,18,-150,-409,261
-44,-5359,-19,-63,-11,-95,-65,-196,-439,342
11,-5008,-50,-103,-93,-140,-95,-191,-312,278
-62,-4709,-45,-102,-108,-95,-23,-19,85,234
-170,-4217,-34,-74,-55,-47,7,54,206,137
-225,-3813,-29,-60,-32,-64,-22,79,350,40
-180,-3030,41,0,43,-35,18,204,607,-39
-64,-1532,126,94,138,14,49,315,750,-118
99,341,66,93,145,-1,-18,258,601,-102
150,2012,-1,100,167,12,-85,63,256,-161
-6,3023,50,114,192,47,-52,15,50,-151
-130,3245,60,59,109,9,-59,-35,-111,-112
-167,2917,17,19,16,-42,-73,-84,-229,-112
-209,2352,-26,62,37,0,-1,-46,-260,-1
-285,1623,28,96,84,56,23,-109,-375,-31
-36,706,5,2,19,25,11,-178,-395,-35
113,14,-44,-59,-57,12,53,-144,-373,0
61,-661,-65,-65,-86,29,120,-74,-391,-15
62,-928,-105,-137,-162,-3,138,172,-137,34
141,-830,-140,-168,-170,2,192,304,-1,3
50,-812,-68,-75,-64,25,177,200,16,-185
-26,-268,82,72,49,15,80,119,94,-369
6,437,81,108,85,-7,9,185,437,-268
21,991,64,85,73,-20,-39,345,815,-39
23,1667,48,43,53,19,-59,231,571,81
5,2374,62,39,52,81,-27,53,172,69
-26,3167,76,64,113,148,14,-60,-85,-37
-31,3233,35,60,135,178,40,-142,-362,-131
3,3025,-60,-44,27,164,86,-117,-474,-162
73,1824,-143,-143,-110,88,118,-84,-432,-146
77,-220,-130,-129,-165,-41,55,-132,-367,-181
-76,-933,-45,-79,-164,-151,-20,-86,-150,-169
-296,-978,55,44,-29,-96,6,-42,-98,-201
-286,-725,39,63,9,-65,-4,-69,-134,-122
-84,-198,-5,11,38,6,-9,-61,-35,24
135,443,-62,-32,95,111,27,-64,-51,224
300,1335,-97,-83,123,214,79,-99,-74,551
230,2438,-51,-17,192,310,135,-42,122,763
128,3480,-22,30,240,336,181,105,350,757
182,4602,-36,-9,180,308,159,55,103,770
-145,5599,-61,-18,134,202,87,-38,-98,604
-648,6642,-51,8,97,113,32,115,188,-39
-524,7694,-91,-75,-84,-50,-74,157,290,-498
152,8525,-80,-143,-240,-165,-146,-65,-38,-474
311,8820,-55,-126,-244,-104,-78,-125,-183,-463
29,9222,-62,-100,-213,-20,50,-12,-105,-317
-341,9655,-21,0,-110,30,133,88,-30,-67
-297,9244,29,94,-5,40,170,202,23,50
-221,8898,-1,135,113,73,213,209,-16,-83
-183,8874,-30,160,193,108,252,114,-18,-314
81,8738,35,175,211,42,145,84,277,-438
342,8704,70,218,195,-54,27,55,352,-280
498,8470,164,164,63,-191,-87,-8,172,-22
500,8056,95,57,-32,-217,-94,18,196,24
448,7640,90,45,-20,-171,-59,-41,41,-64
87,7199,93,68,12,-139,-9,2,107,-104
-307,6776,155,120,62,-77,42,186,322,-136
-227,6385,200,142,57,-118,-113,-3,-24,-164
42,6007,169,123,0,-174,-289,-251,-426,39
282,5657,154,111,-3,-140,-258,-176,-304,242
515,5309,140,105,8,-117,-146,-157,-164,266
395,4982,149,139,31,-60,-37,-176,-230,70
111,4684,87,72,-12,-30,33,-32,27,33
-166,4402,-2,-11,-67,15,121,196,478,185
-478,4122,-28,-5,-57,80,189,226,395,154
-593,3874,-11,20,-43,73,168,182,228,-81
-469,3625,48,89,26,43,51,97,411,-274
-268,3383,47,91,59,15,-23,96,703,-350
129,3132,-33,0,-22,-102,-137,94,822,-264
449,2777,-62,-47,-36,-110,-143,-18,490,-144
378,2266,1,-13,5,-19,-60,-99,144,-74
270,1723,26,0,0,44,25,-66,41,45
303,1269,0,-23,-63,27,25,0,133,231
335,870,-36,-51,-123,-75,-59,-7,202,313
86,368,-104,-124,-241,-176,-89,-71,35,272
-318,-225,-213,-217,-314,-125,39,-74,-198,178
-332,-1116,-230,-185,-235,-13,101,-134,-471,140
80,-2240,-133,-74,-113,34,121,-251,-789,189
222,-4134,47,66,65,111,174,-315,-1118,257
-40,-6589,127,147,165,95,151,-311,-1080,108
-215,-8703,88,98,102,-34,39,-179,-532,-154
31,-9958,82,74,109,0,10,-100,-125,-380
109,-11198,112,108,145,37,67,44,330,-456
-226,-13374,124,108,135,73,142,305,814,-492
-217,-14509,87,64,66,45,177,481,1154,-393
17,-13970,50,19,15,14,144,368,967,-255
7,-13153,50,9,20,32,127,211,647,-191
0,-12329,20,-14,-14,19,101,182,547,-69
-44,-11428,54,36,20,51,55,84,322,-35
-135,-10173,78,90,121,143,37,-15,159,-24
-70,-8337,-44,49,128,172,23,-88,26,2
2,-6375,-119,-15,81,200,25,-128,-117,-19
-4,-4804,-162,-102,0,184,68,-81,-126,66
-4,-3920,-253,-195,-93,103,104,-10,-85,199
2,-3509,-132,-124,-91,4,51,-74,-186,251
-104,-3632,68,51,19,5,29,-95,-226,125
-122,-4674,59,54,72,85,104,-19,-136,-42
182,-6053,-57,-43,0,52,94,-85,-263,-11
60,-7180,-109,-99,-55,79,158,-121,-460,46
-257,-7404,-195,-120,-106,116,227,-25,-455,73
-384,-7031,-54,-1,0,159,190,-55,-528,117
-595,-6605,-1,61,100,244,134,-162,-716,-127
-395,-6209,-103,-58,-15,143,-32,-300,-823,-424
137,-5834,-144,-158,-92,10,-203,-236,-286,-288
302,-5485,-91,-125,2,28,-192,-70,267,19
271,-5149,-11,-54,104,3,-193,-16,307,196
298,-4835,78,29,181,-85,-278,-59,85,211
217,-4538,170,125,240,-90,-295,-57,50,56
140,-4248,135,106,167,-79,-239,24,229,9
174,-3893,92,11,52,-30,-148,8,144,185
195,-3385,39,-84,-82,-7,-61,22,-2,321
151,-2860,71,-46,-98,-39,-51,-15,-177,335
125,-2584,197,134,61,-22,-109,-132,-260,225
141,-2749,227,206,77,-96,-118,-190,-304,74
351,-2800,81,60,-105,-208,-80,-166,-354,144
607,-2688,-78,-93,-221,-161,-40,-165,-467,298
592,-2602,-49,-91,-153,-71,-49,-215,-613,263
93,-2549,-10,1,16,125,88,-199,-646,71
-513,-2429,-59,18,85,171,144,-118,-496,-88
-754,-2271,-162,-57,38,49,53,-28,-195,-165
-606,-2099,-125,-51,39,-18,36,81,62,-150
-184,-1794,12,11,58,-50,-23,58,-19,-232
84,-1327,-55,-86,-37,-134,-101,174,294,-144
201,-557,-56,-95,-42,-101,-101,335,719,211
311,448,-8,-10,41,35,-65,372,992,415
189,1219,12,82,114,141,13,384,1079,324
-316,1296,-2,141,157,211,190,412,872,137
-526,939,42,171,154,192,265,451,632,-38
-48,675,82,114,19,-64,48,340,466,-128
160,-138,154,90,-73,-268,-154,115,181,-123
-6,-1256,49,-11,-102,-236,-217,-105,-63,-221
-36,-1812,-8,-64,-62,-143,-212,-234,-255,-376
66,-1882,35,20,10,-72,-171,-275,-391,-471
313,-1781,115,105,98,-35,-147,-242,-316,-345
514,-1675,182,159,166,39,-80,-206,-354,-62
255,-1575,80,87,107,1,-75,-264,-598,183
-100,-1478,-67,-28,23,-69,-113,-243,-668,206
-148,-1382,-73,-40,16,-73,-152,-252,-759,144
-112,-1300,-67,-40,-16,-81,-173,-250,-888,141
-51,-1220,-123,-78,-106,-151,-265,-232,-609,181
136,-1093,-214,-92,-154,-214,-353,0,311,312
209,-642,-26,2,-56,-113,-299,79,567,198
94,202,37,16,-3,12,-182,150,829,-1
-284,781,25,16,5,110,-1,319,991,-214
-366,1248,85,38,-6,87,20,229,537,-371
-240,1357,66,62,56,97,-11,84,255,-284
-156,1031,32,67,115,134,23,62,145,-70
174,693,-93,-33,47,164,110,115,145,236
692,637,-135,-75,-49,93,53,118,236,518
495,280,-4,-9,-23,128,79,206,299,539
-277,-325,70,47,7,195,145,234,161,245
-629,-438,53,1,-48,59,-9,0,-268,-244
-259,-166,-3,-49,-112,-170,-234,-363,-881,-397
176,-106,-14,-71,-144,-271,-295,-516,-1249,-53
568,5,25,-42,-110,-236,-282,-557,-1424,244
579,88,39,29,-2,-80,-203,-561,-1484,412
-181,18,-178,-141,-127,0,0,-239,-928,452
-753,448,-289,-295,-263,-17,128,229,167,455
-730,1388,-77,-52,-7,120,189,359,537,169
-587,2310,149,226,262,188,25,136,198,-397
-205,2705,229,291,272,63,-98,155,473,-720
111,2980,173,170,108,-49,-83,370,939,-848
342,3108,25,48,-22,-106,-120,377,887,-661
108,2769,93,86,-67,-158,-211,185,507,-9
323,2738,89,47,-80,-136,-212,112,398,174
556,2717,74,18,-92,-79,-168,44,210,249
699,2692,-36,-93,-188,-55,-101,-33,-8,246
747,2724,-200,-266,-343,-102,1,32,-42,428
356,2687,-219,-254,-327,-56,95,108,-86,484
-162,2903,-68,-42,-113,34,173,66,-250,39
-307,3447,93,127,74,44,129,-8,-393,-214
-210,3936,147,187,211,91,48,-120,-392,-248
-163,4139,47,124,242,76,-32,-108,32,-125
-226,4303,31,119,273,90,-6,80,437,-30
-403,4205,28,114,242,107,20,168,464,-161
-354,3738,62,117,191,108,-17,69,184,-147
-230,2831,112,128,159,123,-5,105,56,-67
-234,1841,109,135,130,127,15,170,13,-143
-138,717,74,97,89,112,18,106,-42,-135
-51,-510,-16,0,17,176,112,106,-5,-36
113,-1554,-121,-114,-117,133,131,52,-75,41
494,-2386,-244,-242,-284,-68,-2,-81,-149,118
657,-3032,-216,-276,-355,-254,-125,-133,-167,211
290,-3562,-125,-180,-277,-341,-218,-113,-183,143
-32,-3620,-69,-60,-128,-209,-152,-34,-196,74
0,-3523,-138,-25,-25,-26,21,70,-176,118
345,-2983,-155,-97,-117,-64,38,36,-265,312
718,-1957,-148,-224,-283,-167,-66,-109,-396,594
513,-967,-193,-270,-340,-202,-187,-243,-528,622
-123,-124,-179,-215,-248,-141,-253,-424,-744,317
-523,689,-173,-117,-65,9,-171,-402,-531,216
-805,1411,-109,30,168,316,158,-134,-253,226
-1250,1851,33,128,268,528,425,112,-233,-190
-1539,2037,102,185,316,556,546,326,-5,-984
-937,2349,136,278,374,327,267,104,-59,-1377
-400,2434,106,219,250,1,-88,7,252,-1037
52,2490,84,110,100,-143,-193,179,718,-307
743,2698,36,38,1,-134,-174,152,705,199
942,2661,45,27,-35,-148,-167,75,512,305
765,2536,125,42,-56,-154,-169,96,509,337
582,2822,250,105,-22,-137,-88,209,584,327
515,3337,234,116,-8,-117,-45,174,377,169
381,4451,22,27,-60,-123,-32,117,191,28
-178,6011,-132,-83,-126,-108,-1,48,-105,-230
-341,7046,-118,-117,-94,12,27,-162,-602,-403
102,7934,-188,-175,-96,86,38,-328,-941,-155
479,8773,-193,-198,-118,11,-87,-495,-1028,258
437,9245,-108,-90,-26,-59,-230,-500,-733,454
141,9567,-149,-97,-69,-158,-263,-151,105,499
-438,8970,-153,-46,15,-16,-115,96,589,98
-306,8201,-46,-46,-9,-42,-61,121,608,-168
460,7348,30,-98,-157,-232,-167,70,477,10
123,5703,248,191,135,-40,-86,54,204,66
-1278,3685,438,507,520,442,373,262,26,-282
-1873,2204,274,391,480,765,830,562,13,-451
-942,2028,-116,-71,25,456,624,392,-274,-259
-52,2523,-224,-209,-151,185,369,50,-724,-278
305,3084,-95,-40,11,199,224,-214,-885,-483
235,3356,-96,-17,86,219,205,-69,-244,-464
311,3843,-136,-68,24,111,249,180,286,-176
182,4511,-179,-25,20,-39,147,236,375,-44
272,5175,-159,-45,-28,-252,-151,172,524,180
358,6109,-43,-53,-90,-390,-327,105,676,368
-26,6859,35,-8,-53,-377,-399,36,592,362
-236,6833,159,102,59,-267,-359,-84,327,241
64,6826,212,129,87,-167,-267,-126,154,170
138,6495,155,52,5,-129,-181,-90,75,111
87,5926,56,-41,-50,-139,-144,-93,-16,97
414,5281,31,-42,12,-82,-36,7,9,294
439,4531,74,87,160,-43,6,63,33,297
-41,3528,171,163,228,-43,10,85,55,47
-367,2533,90,79,124,-63,17,48,107,-204
-140,1901,-90,-54,-159,-263,-85,-31,83,-167
295,1476,-181,-114,-312,-336,-147,-93,-16,-7
290,1305,-104,-121,-340,-315,-177,-174,-155,-100
400,1415,-20,-101,-309,-371,-343,-365,-329,-149
420,2004,207,185,40,-16,47,-54,-293,441
-215,2613,174,223,117,103,197,4,-308,434
-738,3380,83,140,103,164,200,11,-339,158
-659,3975,56,92,83,247,266,84,-335,-151
-584,4164,13,71,96,388,363,286,279,-308
-249,4059,-37,14,23,355,326,340,610,-281
330,3874,17,-42,-109,137,150,55,118,-318
600,3644,-24,-134,-246,-44,112,-17,-122,-117
347,3414,-49,-152,-253,9,301,233,25,103
-179,3202,-68,-21,3,336,501,211,-274,-12
-415,3011,-110,78,204,397,353,-8,-406,-36
-358,2820,-98,62,225,285,184,-36,-312,-11
-317,2662,-146,-91,38,33,148,150,-42,-135
-157,2526,-160,-170,-145,-316,-26,201,508,-55
41,2389,-96,-140,-172,-408,-149,82,526,84
92,2257,-11,-45,-79,-313,-187,-121,123,117
-45,2123,52,50,23,-174,-186,-77,313,222
44,1985,102,115,49,-170,-201,31,327,342
279,1877,94,53,-37,-265,-259,168,427,384
774,1776,84,-44,-178,-376,-393,58,342,319
1231,1673,90,-99,-292,-521,-576,-251,-33,413
1009,1569,103,-17,-157,-388,-508,-393,-294,514
489,1482,69,55,21,-74,-194,-374,-501,169
512,1382,-54,-34,-2,99,-25,-359,-596,-88
378,1289,-52,-11,73,339,280,-83,-391,-21
-643,1214,-26,135,292,756,722,199,-300,-435
-1670,1143,-177,97,342,979,934,263,-274,-1098
-1455,1074,-406,-120,167,790,823,217,-216,-986
-698,1005,-558,-337,-120,282,398,69,-132,-565
-510,950,-462,-279,-136,-86,-49,-26,313,-397
-225,902,-192,-57,48,-162,-207,-94,324,-333
279,836,85,185,309,-103,-301,-204,101,-236
849,795,217,197,313,-162,-304,42,277,132
917,739,216,117,188,-175,-263,240,512,525
-46,688,124,55,60,-145,-245,250,542,556
-86,665,120,74,-62,-314,-432,82,429,560
829,628,348,201,-89,-405,-549,-150,159,453
766,595,428,214,-115,-290,-411,-251,-97,240
242,560,316,177,-82,-109,-160,-131,-63,226
-174,519,272,197,-23,0,28,15,18,58
-338,476,188,137,-61,41,176,118,-11,-149
-172,447,50,-6,-176,-68,133,123,-59,-52
46,438,-12,-83,-239,-229,-36,0,-125,-23
258,395,-26,-129,-281,-291,-134,-49,-72,-38
553,361,-11,-158,-277,-215,-67,-7,27,150
826,355,-9,-178,-275,-160,-16,-13,90,573
457,329,-79,-190,-257,-137,-50,-49,89,872
227,312,-209,-353,-422,-285,-149,-63,88,980
490,308,-368,-613,-682,-503,-182,36,142,1150
468,295,-290,-550,-639,-561,-192,24,107,803
550,270,-45,-165,-224,-363,-246,-275,-325,-163
1031,253,288,320,299,3,2,-88,-68,49
345,245,443,585,627,389,470,462,426,263
-1963,233,350,651,835,744,798,711,402,-369
-3192,215,299,684,946,958,871,621,66,-1062
-1471,194,199,499,703,740,634,227,-438,-1435
-39,192,-68,109,202,478,418,-108,-744,-1359
-52,180,-437,-368,-250,489,569,96,-333,-560
-179,161,-554,-524,-363,479,630,270,160,-13
-193,140,-263,-160,-37,476,453,4,-80,-129
-160,133,-60,57,69,260,243,-158,-506,-293
-25,134,-177,-184,-225,-210,-12,-170,-640,-367
2,133,-340,-399,-425,-491,-175,-178,-598,-487
373,139,-229,-259,-296,-485,-286,-195,-280,-460
848,137,127,19,-87,-371,-303,95,622,-89
288,124,446,421,296,-95,-234,222,834,74
-473,105,472,498,406,-36,-239,82,441,60
-659,95,198,334,267,-188,-318,-125,102,-103
-557,84,-37,194,162,-246,-305,-339,-222,-249
-240,85,-85,67,82,-181,-182,-323,-392,-1
233,80,7,8,26,-124,-77,-244,-375,219
902,78,52,-41,-50,-159,-106,-325,-454,254
1259,63,141,23,18,-101,-131,-445,-647,187
72,63,48,-40,4,105,66,-250,-473,-128
-1195,47,-322,-373,-183,346,461,14,-427,-213
-1192,43,-555,-594,-355,538,813,183,-703,-154
-747,41,-507,-462,-235,571,684,-133,-1202,-351
-380,33,-313,-163,49,519,432,-266,-861,-421
-388,36,-154,-23,121,490,563,346,619,-296
-467,25,-64,-36,78,374,495,627,1294,-158
-636,13,-60,-35,165,236,165,490,1180,-8
-205,8,-4,36,277,96,-21,424,1164,-5
622,-3,-72,-35,185,36,13,486,1034,-40
928,14,-76,-11,174,66,36,484,797,-205
257,9,116,135,261,192,21,305,525,-559
-257,11,276,295,353,171,-94,68,342,-545
109,15,343,308,291,-65,-233,-25,289,-128
468,17,336,233,101,-327,-372,-123,215,128
644,10,275,81,-148,-527,-417,-99,155,310
830,11,252,-7,-287,-702,-471,-67,142,503
993,6,253,47,-247,-718,-549,-134,127,606
254,-23,238,112,-139,-540,-416,-99,121,457
-631,-129,165,162,12,-342,-230,-53,116,172
-235,-374,47,111,4,-230,-83,-7,42,34
114,-889,-38,-34,-91,-156,122,108,-114,101
73,-1547,-73,-134,-181,-150,209,120,-307,92
107,-1659,-164,-207,-192,-149,96,-43,-513,-53
124,-1598,-219,-236,-248,-179,-33,-223,-555,-58
308,-1476,-125,-153,-252,-143,-83,-204,-177,67
417,-1150,60,48,-72,20,-29,-179,25,-38
357,-831,203,194,66,182,46,-351,-537,-138
-274,-424,107,144,93,227,118,-407,-990,-14
-675,281,-49,-7,54,105,38,-353,-897,317
-395,519,-169,-186,-57,-17,-101,-339,-705,646
-353,551,-236,-274,-135,-48,-155,-176,-199,637
-445,533,-290,-287,-154,-30,-47,417,1181,456
-381,491,-166,-164,-60,100,97,840,2029,222
-88,480,-40,-154,-140,63,25,575,1468,-54
337,466,-123,-316,-387,-226,-270,62,555,-261
328,420,-36,-255,-390,-370,-434,-196,110,-81
699,390,231,31,-123,-186,-220,-9,218,269
865,376,403,275,174,258,186,209,289,296
570,357,244,196,183,477,442,265,161,-21
48,344,40,50,97,490,432,172,5,-316
-355,314,-99,-28,65,445,192,-162,-422,-804
-614,289,-277,-124,-26,370,62,-299,-575,-927
-1073,270,-172,-29,103,449,181,-114,-381,-672
-767,261,-146,-123,51,286,190,107,-112,-278
-279,246,-172,-208,-48,-10,39,160,-12,-169
-464,236,-116,-127,-14,-166,-99,71,-36,-300
-631,222,23,43,107,-178,-149,30,-22,-216
-162,202,117,134,146,-166,-195,-42,-73,-29
105,192,62,27,46,-68,-117,-111,-211,39
206,174,-67,-164,-174,-11,48,-50,-267,232
319,157,-37,-118,-219,-127,-8,-212,-502,296
674,152,247,153,-21,-287,-304,-562,-779,328
694,123,456,371,205,-354,-399,-495,-573,616
625,44,464,347,222,-318,-284,-108,120,1044
1443,-41,372,231,82,-287,-143,244,758,1332
1551,-57,333,240,138,-115,13,388,951,1245
356,-46,210,234,186,12,73,328,844,613
-1185,13,-40,61,14,-111,-46,23,268,-375
-1810,93,91,140,75,-12,13,-114,-171,-850
-1269,113,183,182,122,136,152,-10,-322,-1102
6,119,78,4,-46,20,44,-101,-574,-1037
353,115,94,35,-1,34,-43,-223,-677,-726
128,121,51,60,64,118,-66,-227,-460,-472
-135,124,-96,-82,-33,59,-29,-34,155,-263
-41,118,-242,-192,-168,-71,-85,21,366,-99
385,114,-192,-185,-216,-133,-216,-54,221,-20
904,96,-19,-87,-117,-93,-227,-12,182,50
931,92,81,84,117,52,-132,-6,71,-18
21,79,54,222,310,138,-55,-28,-6,-197
-719,61,-8,216,353,164,27,7,26,-239
-518,39,-15,68,244,133,56,3,30,-85
-275,-22,-59,-85,77,25,32,-50,-35,72
-235,-112,-202,-257,-148,-115,-44,-99,-120,195
-168,-216,-265,-348,-331,-221,-122,-149,-204,161
-43,-488,-237,-270,-317,-215,-127,-140,-255,127
525,-877,-159,-103,-197,-79,-62,-153,-294,64
1112,-1349,-94,-63,-180,104,147,-1,-128,358
1064,-1654,-117,-121,-165,239,354,167,72,907
827,-1600,-231,-212,-191,156,279,78,-88,1166
-230,-1931,-95,-24,6,195,224,56,-138,756
-637,-2274,209,143,237,535,509,275,-54,-184
-99,-2325,125,-90,48,543,514,90,-528,-1166
-637,-3134,-239,-462,-307,274,372,53,-466,-1046
-1387,-4811,-121,-233,-105,224,283,33,-292,-542
-1141,-6718,218,186,274,270,128,-242,-716,-392
-415,-7907,245,204,237,131,-56,-268,-628,-144
0,-8350,67,100,154,127,5,123,212,-136
-102,-8289,-30,73,187,229,115,402,813,-626
-367,-8560,-68,-1,179,394,238,394,532,-769
-599,-9216,-21,0,199,539,395,352,167,-600
-342,-9125,46,28,143,324,197,224,291,-424
-29,-8711,69,59,128,128,-66,250,661,-242
256,-8024,90,-4,15,-76,-254,132,549,-28
441,-7418,114,-50,-66,-189,-282,34,391,262
357,-6744,179,12,-46,-144,-214,70,364,463
322,-5713,191,57,13,23,-121,34,260,367
18,-4851,162,77,77,120,-117,-68,25,42
-18,-4349,4,-108,-194,-290,-344,-167,-136,-77
502,-4243,25,-22,-111,-545,-622,-429,-442,-189
786,-4451,-153,-78,-50,-485,-541,-389,-485,-2
567,-5399,-332,-257,-82,-307,-270,-236,-512,177
-371,-6642,-291,-159,88,-29,-88,-330,-849,73
-893,-7453,-66,77,318,108,-44,-475,-1017,153
-701,-8168,104,166,355,166,71,-336,-725,327
-644,-9009,186,194,307,305,226,-159,-328,341
-941,-9697,187,214,229,460,455,-27,-25,213
-408,-9268,166,130,0,348,426,-117,-130,-227
715,-8246,70,-69,-263,20,123,-406,-709,-371
1135,-7215,29,-119,-301,-177,-87,-514,-791,45
753,-6259,11,-118,-289,-231,-37,166,639,505
25,-5342,-1,-42,-112,-13,214,887,1789,353
-441,-3671,-129,-114,-27,161,342,843,1608,-339
-330,-2130,-267,-250,-22,258,451,659,1143,-550
-299,-1215,-148,-170,25,117,321,406,606,-540
-159,-831,4,-73,-4,-161,-80,-14,126,-408
687,-618,-51,-257,-351,-585,-415,-208,69,112
1001,-1113,-83,-316,-478,-674,-464,-177,237,515
562,-2362,60,-77,-232,-448,-237,106,499,569
451,-3544,122,44,-100,-246,33,382,659,519
53,-4630,43,-105,-300,-317,151,495,695,465
63,-5522,109,-93,-368,-506,-95,212,434,349
536,-5957,352,260,28,-397,-417,-260,-50,79
776,-5851,388,306,81,-406,-527,-330,-75,316
1017,-5537,142,28,-138,-434,-523,-319,13,753
1132,-5192,-26,-172,-253,-458,-604,-422,-62,942
1188,-4852,41,-95,-121,-289,-523,-433,-215,659
665,-4564,11,-23,5,23,-220,-320,-362,157
-439,-4314,-10,40,123,328,156,-96,-458,-420
-698,-3957,243,337,429,570,423,162,-449,-810
-681,-3201,238,373,454,517,315,104,-509,-866
-1233,-2694,33,187,288,419,257,71,-412,-842
-1701,-2548,-64,111,218,324,249,181,-100,-680
-968,-2125,-74,66,134,150,96,70,111,-280
-98,-1835,-35,10,52,-34,-83,-175,62,-5
575,-1813,132,59,52,-151,-216,-343,-142,180
816,-1806,278,138,103,-122,-193,-258,-92,302
627,-1983,232,142,151,17,-12,77,146,267
-536,-2132,-39,-28,31,5,19,279,309,227
-1901,-1839,-319,-261,-184,-194,-179,104,188,5
-802,-623,-321,-355,-328,-366,-318,-92,-13,-158
649,974,-120,-254,-288,-336,-255,-52,0,143
381,1772,2,5,31,33,93,209,36,-126
-630,2593,12,150,248,310,338,321,13,-673
-692,3513,-192,-124,-44,193,338,305,79,-558
625,4536,-483,-518,-440,3,324,298,63,-161
727,5570,-374,-266,-200,104,264,5,-330,-423
156,6148,35,394,523,584,351,-218,-652,-818
-160,5896,98,397,487,558,463,108,-324,-456
-509,5141,125,296,356,408,331,152,-140,-145
-642,4300,178,305,336,268,128,25,-132,-75
-429,3555,80,146,180,48,-61,-81,-93,104
-67,2519,-37,13,25,-150,-237,-178,-31,286
92,1309,-41,39,-19,-168,-266,-127,53,260
262,196,228,212,37,-68,-281,-107,71,186
933,-688,310,179,-35,-100,-419,-262,13,597
1480,-1345,-12,-205,-331,-354,-663,-525,-63,1189
1487,-1867,-410,-582,-629,-677,-922,-807,-101,1803
1248,-2456,-533,-658,-652,-698,-779,-672,113,2206
897,-2979,-270,-363,-378,-430,-328,-205,357,1816
-559,-3855,-134,-60,17,108,300,245,339,607
-1209,-4146,-248,-118,45,365,724,558,172,-587
-476,-3744,195,415,607,244,89,-22,-600,-1756
-1171,-3838,167,490,791,664,430,180,-470,-1637
-649,-3758,116,304,481,600,490,116,-580,-1291
-167,-3624,129,192,161,377,363,-124,-863,-1156
-1000,-3453,81,145,108,466,488,-103,-924,-1501
-1334,-3251,-2,89,108,525,410,-171,-915,-1417
-1251,-3060,-76,3,131,583,237,-303,-1044,-1041
-811,-2880,-117,-48,180,662,189,-239,-966,-454
-341,-2714,-152,-81,243,622,105,-122,-618,31
-77,-2564,-226,-211,182,303,-62,-11,-144,232
60,-2394,-105,-212,212,49,-166,112,378,217
162,-2243,121,-23,356,-11,-98,324,981,89
281,-2115,281,109,323,-120,-53,529,1342,116
552,-2001,345,118,75,-345,-127,478,1236,442
701,-1886,326,67,-138,-436,-135,299,694,410
710,-1769,178,-43,-307,-405,-20,320,589,284
663,-1652,213,58,-236,-269,18,239,446,190
452,-1536,327,210,-32,-152,-61,33,190,127
85,-1435,124,35,-146,-213,-131,14,156,281
-46,-1358,-8,-90,-334,-375,-96,168,290,357
251,-1289,94,29,-402,-559,-197,63,132,406
415,-1215,199,130,-364,-600,-321,-208,-225,380
449,-1143,212,108,-329,-577,-382,-318,-301,338
383,-1094,257,136,-228,-483,-347,-230,-59,253
83,-1036,240,152,-64,-249,-150,10,275,114
349,-975,27,-70,-182,-71,81,152,312,134
624,-929,-147,-322,-451,-126,215,264,257,377
-77,-875,14,-98,-261,-166,51,16,-160,253
-307,-831,155,176,27,-156,-94,-153,-477,158
-183,-788,57,162,106,1,25,-110,-545,32
-323,-738,-85,32,50,9,13,-85,-435,-48
-446,-683,-176,-47,18,-42,-52,53,25,-103
-521,-630,-219,-82,-7,-48,-92,195,587,-43
-379,-582,-230,-125,-57,-52,-111,202,705,-51
292,-541,-154,-122,-69,-121,-225,-8,307,-254
861,-504,-104,-106,-84,-209,-382,-264,-41,-85
714,-481,-87,-94,-81,-161,-316,-275,-116,286
-62,-468,-231,-232,-209,-213,-311,-271,-137,668
662,-442,-373,-370,-377,-315,-324,-217,-54,785
1030,-412,-319,-359,-381,-164,-74,-6,73,-37
452,-396,-199,-279,-268,81,315,428,497,-589
454,-386,-30,62,160,347,405,407,458,-277
459,-363,216,364,425,358,246,177,133,22
-270,-340,212,382,411,247,155,85,28,-152
-875,-320,38,136,203,144,87,31,-30,-513
-655,-294,-15,-23,8,-11,-60,-73,-90,-621
-586,-271,-104,-116,-73,-100,-156,-123,-115,-501
-264,-255,-141,-66,-17,-57,-130,-126,-63,-186
79,-244,88,155,126,14,-134,-157,-129,-257
196,-222,166,246,107,5,-170,-202,-247,-324
-222,-218,138,266,99,48,-74,-130,-214,-329
-1033,-197,94,280,117,76,14,-84,-316,-633
-861,-174,-69,102,5,103,84,-37,-364,-758
-104,-174,-217,-103,-57,222,209,43,-229,-421
517,-165,-88,-72,-26,157,146,-10,-202,-43
639,-150,144,183,264,268,160,21,-99,111
-225,-120,98,214,395,408,340,243,142,156
-947,27,-139,32,240,260,292,286,210,247
-503,63,-164,24,182,43,56,83,49,87
336,-26,-111,29,94,-118,-98,-50,-21,-90
696,-42,-25,55,69,-142,-102,-85,-67,2
230,-51,-19,74,104,-80,-86,-93,-110,-118
-15,-43,-82,-32,-5,-88,-92,-143,-206,-196
-432,-24,-175,-169,-143,-91,-33,-238,-403,-177
-572,-2,-268,-176,-129,-12,36,-273,-480,-61
1,142,-174,-129,-70,62,-30,-373,-472,175
1051,547,-232,-315,-285,-80,-176,-389,-260,725
1628,1127,-370,-525,-483,-260,-225,-165,297,1285
567,1007,-364,-407,-283,-93,-47,165,770,1340
-1490,270,-330,-197,21,265,332,495,828,704
-2319,-174,-18,212,451,608,609,468,201,-878
-981,-226,357,499,665,541,380,51,-452,-1832
435,-241,361,284,327,130,61,-65,-319,-1189
800,-233,163,-9,-55,-89,-31,30,-3,-431
608,-218,115,8,-104,-115,-72,4,28,-97
-48,-214,102,47,-131,-215,-195,-134,-69,102
-294,-215,109,16,-159,-227,-174,-127,-93,87
21,-196,96,-11,-96,-113,-103,-57,-67,128
74,-193,-67,-188,-237,-255,-168,-17,-45,206
8,-189,-134,-237,-286,-426,-341,-92,-28,261
80,-178,-138,-180,-189,-366,-373,-78,128,501
71,-169,-68,-54,-2,-179,-237,22,223,518
-241,-166,13,102,137,-40,-107,50,157,340
-792,-147,134,297,317,236,48,-138,-218,-62
-270,-132,2,109,194,460,197,-334,-658,-365
555,-124,-190,-118,89,647,308,-447,-860,-67
204,-114,-183,-56,233,871,532,-402,-1007,175
-694,-117,-116,68,359,1076,798,-340,-1298,19
-1330,-115,-110,-20,112,683,634,-398,-1295,-459
-1141,-104,-123,-143,-206,-30,68,-517,-1070,-1378
-34,-108,-161,-221,-264,-257,-100,-214,-474,-1602
528,-112,-5,-44,0,-78,23,311,507,-942
961,-104,75,-1,93,-36,33,713,1161,-206
1326,-92,174,0,11,-238,-147,836,1446,392
1547,-78,224,57,-17,-372,-259,633,1241,681
647,-73,200,108,15,-312,-190,527,1041,630
-415,-62,214,137,5,-343,-235,380,976,645
-108,-39,301,158,-39,-496,-433,104,777,671
428,-32,337,134,-130,-628,-583,-137,362,379
464,-10,267,109,-126,-585,-489,-124,200,299
307,1,56,12,-153,-450,-241,86,330,446
157,13,-18,-27,-145,-225,-54,152,260,214
18,14,-11,-22,-142,-31,121,252,194,43
-542,6,44,102,-93,-31,126,261,103,1
-711,12,292,462,153,-70,-186,-112,-256,-228
58,-4,298,366,-6,-243,-430,-312,-347,-89
694,-21,45,2,-238,-238,-407,-370,-348,152
1136,-24,-54,-22,-112,18,-139,-377,-424,284
661,-29,-48,16,-43,146,197,-206,-356,351
-43,-25,-137,-66,-124,52,204,-163,-282,305
-167,-24,-88,-80,-75,-4,118,-155,-241,182
-710,-15,184,6,38,-14,126,-21,-77,117
-999,-2,234,76,96,15,104,23,110,132
-338,12,218,119,134,114,163,86,220,331
81,19,135,42,68,139,234,281,452,628
-124,21,-71,-146,-85,33,127,225,387,558
-758,81,-129,-116,-34,82,75,75,132,-84
-941,510,-11,-16,9,61,-26,-73,-96,-715
-62,1245,81,44,16,-42,-200,-217,-182,-384
729,1888,44,66,105,75,-88,-138,-66,-107
895,2207,-75,67,188,204,83,-61,-59,-330
605,1660,-150,94,240,244,112,-89,-137,-395
-71,1085,-164,105,250,223,106,-105,-164,-489
-477,639,-183,60,230,200,113,-87,-109,-415
-482,18,-131,44,184,172,118,-76,-159,-305
-264,-239,-120,-76,-17,35,108,-67,-212,-352
101,834,-123,-160,-213,-140,43,-55,-169,-184
262,2491,-63,-89,-219,-171,-17,-25,-44,69
129,2428,10,-15,-268,-204,-114,-49,40,224
-319,2147,46,77,-240,-256,-194,-65,161,389
-454,2030,37,129,-111,-194,-126,34,296,543
-130,2182,31,115,-30,-112,-59,37,177,381
27,2465,4,8,-20,-46,-4,10,12,264
366,2834,-100,-100,-83,-26,-10,-70,-196,68
1043,2978,-63,-46,-73,-26,-51,-195,-408,58
1453,2499,98,27,-32,38,26,-166,-433,552
1149,1553,148,6,-31,105,118,-68,-287,954
-4,229,127,50,73,185,146,-40,-189,680
-1105,-1162,102,176,249,344,261,72,-80,275
-1884,-1812,-149,-84,10,265,344,336,227,-275
-1364,-1830,-398,-433,-389,-126,120,374,472,-831
-358,-1734,-96,-86,-83,-128,-101,92,216,-1011
-75,-1641,62,119,137,-2,-123,-70,-54,-676
-109,-1540,-232,-202,-126,-94,-133,-152,-205,-66
-352,-1436,-471,-441,-260,-11,-96,-272,-341,238
-57,-1338,-344,-308,-57,308,213,-112,-249,185
241,-1257,-157,-35,234,623,596,191,-92,-322
-73,-1174,-85,121,363,657,659,265,-7,-696
-216,-1054,-65,77,277,395,370,88,-61,-774
157,-761,-122,-47,40,60,44,-5,-63,-687
286,-115,-106,-95,-70,-80,-138,-15,9,-446
272,636,-20,-75,-94,-153,-285,-40,176,-257
410,1127,148,21,-51,-238,-446,-44,122,56
519,468,180,133,19,-241,-383,-22,37,163
168,-685,226,175,69,-242,-376,-115,-1,415
306,-1058,133,5,-104,-344,-404,-175,57,789
786,-1036,116,-77,-193,-400,-381,-140,221,1059
856,-975,202,-11,-119,-332,-221,11,471,1177
146,-937,-20,-129,-134,-119,72,217,552,1011
-456,-891,-210,-178,-39,229,347,190,156,177
-726,-824,-109,78,235,431,364,-67,-307,-352
-353,-760,10,278,389,414,248,-265,-690,-573
-609,-708,4,257,330,298,169,-390,-1046,-902
-1193,-623,-131,116,189,184,160,-281,-919,-1019
-956,-274,-144,53,182,275,183,-214,-629,-1040
-647,519,-121,106,331,657,397,-120,-386,-1142
-622,1429,-117,177,473,998,670,16,-192,-1200
-661,2139,-258,28,361,1067,756,138,4,-950
-614,2931,-400,-185,144,913,731,302,-11,-652
-515,3292,-593,-467,-180,535,622,619,223,-311
-329,2260,-730,-701,-514,-39,280,727,663,108
104,1490,-553,-612,-453,-361,-44,529,876,500
1324,1258,-77,-233,-39,-463,-345,216,815,1112
1853,649,326,130,235,-769,-742,-73,717,1570
471,-378,453,290,277,-829,-872,-221,616,1526
-713,-951,372,277,134,-702,-749,-87,689,1367
-805,-1147,362,339,30,-709,-749,-55,641,911
867,-484,491,391,-119,-893,-955,-452,169,576
2797,266,603,326,-259,-909,-850,-532,59,982
2903,216,839,482,-108,-601,-407,-191,313,1080
1730,313,786,574,111,-235,-63,-16,122,113
-426,87,383,386,93,-62,59,6,-268,-1014
-1085,181,114,204,21,-83,24,-7,-397,-1403
-837,645,149,149,50,-93,53,91,-187,-944
-617,1467,93,-3,13,-47,77,174,-20,-257
-248,299,67,-113,-28,-38,16,180,10,54
-384,-1216,43,-165,-63,-20,68,223,152,105
-935,-1464,-44,-200,-155,24,145,221,138,-165
-635,-1438,-44,-95,-184,-33,72,55,-23,-254
243,-1361,-3,-41,-237,-156,-18,-96,-63,150
646,-1278,26,-62,-312,-189,-33,-85,32,449
521,-1192,82,2,-213,-94,4,-53,44,293
279,-1120,135,74,-29,70,102,-32,0,-2
191,-1057,70,-17,-40,113,149,8,-91,-219
151,-971,16,-134,-143,44,63,-58,-194,-151
-47,-481,54,-134,-151,60,44,-144,-238,-117
-230,1083,130,-43,-70,160,138,-187,-423,-284
-340,2184,98,-10,-44,157,187,-159,-413,-229
-293,2912,17,-34,-59,73,130,-166,-413,-129
-211,3611,-96,-79,-64,105,124,-210,-559,-214
-195,3701,-235,-240,-155,81,39,-255,-527,-225
68,3386,-325,-372,-278,-67,-155,-177,-116,-107
727,2790,-329,-400,-331,-189,-209,-19,274,96
783,1137,-212,-132,-48,-79,-111,108,356,64
-331,-771,-24,90,238,142,16,197,400,158
-786,-1616,-25,36,227,192,127,334,574,623
-569,-1882,83,128,291,323,305,385,494,776
-336,-1887,86,170,191,252,321,235,173,275
-78,-1787,-34,158,76,29,128,51,-79,-249
-32,-1680,19,116,38,-41,24,33,-92,-292
-92,-1530,11,8,-53,-41,51,57,-48,-396
-141,-972,-71,-80,-115,-64,35,69,43,-305
-90,260,-135,-51,-85,-134,-47,76,167,26
-139,1109,-210,62,49,-79,-35,46,133,57
-271,1674,-279,225,218,128,82,-68,-85,-202
-395,2404,-119,346,350,260,78,-213,-315,-394
-291,3156,55,242,235,129,-70,-209,-272,-228
-40,3396,-34,-6,29,-25,-155,-146,-107,84
76,3165,-180,-157,-82,-60,-118,-87,-18,227
222,2673,-111,-139,-103,-94,-156,-96,21,262
413,1718,153,-69,-93,-164,-252,-118,21,238
535,375,289,-99,-154,-221,-273,-140,-20,244
316,-1677,151,-147,-115,-198,-263,-181,-84,185
-188,-2445,-149,-325,-186,-217,-267,-165,-33,367
-330,-2370,-375,-511,-323,-265,-265,-43,183,763
-53,-2240,-296,-411,-222,-136,-151,24,124,629
95,-2118,-41,-65,107,162,51,37,-84,260
-281,-1993,188,215,373,420,251,141,-154,-304
-86,-1858,318,335,414,527,473,200,-190,-820
164,-1631,264,314,265,432,562,71,-304,-783
0,-1332,203,267,106,261,451,-28,-346,-309
-35,-1280,175,193,35,144,326,-30,-282,151
-11,-985,116,78,-18,27,223,-27,-239,135
-23,-714,35,-40,-80,-86,85,-75,-245,-130
40,-652,-108,-177,-137,-117,22,-76,-125,-161
-55,375,-219,-211,-112,86,182,86,169,135
-382,2634,-292,-129,37,419,451,270,321,188
-464,1646,-266,-103,101,511,547,310,216,29
-205,264,-217,-117,54,344,348,100,-53,-44
-261,-582,-127,-68,87,238,200,-22,-195,-487
-87,-1042,-144,-187,-57,-57,-28,-100,-195,-708
371,-1325,-259,-264,-92,-230,-220,-190,-233,-260
615,-1297,-219,-219,-10,-205,-207,-76,-71,386
677,-1274,0,-83,8,-226,-158,98,248,819
-21,-1286,128,50,62,-165,-48,327,600,976
-655,-1175,155,99,39,-194,-104,272,521,481
253,-779,252,158,3,-266,-244,2,179,-376
1171,180,411,255,32,-264,-292,-97,75,-295
1253,1291,413,259,40,-247,-321,-116,4,-317
607,1695,271,184,-26,-280,-345,-150,-102,-517
51,559,10,-52,-228,-409,-427,-192,-37,-272
-497,-286,-184,-206,-318,-432,-389,-172,48,0
-262,-766,-109,-135,-228,-275,-190,-18,235,415
-200,-1006,-99,-78,-107,-94,8,142,379,679
-862,-1180,-165,-33,38,25,119,205,299,445
-425,-1145,-90,12,77,49,101,152,209,459
200,-1074,3,-11,3,-32,10,63,179,677
-450,-1019,27,2,34,94,160,207,336,627
-1515,-964,-204,-33,96,281,455,446,482,553
-819,-901,-350,-77,89,303,406,171,-87,35
1122,-845,-498,-416,-253,89,81,-357,-861,-136
1737,-784,-615,-604,-457,85,146,-403,-1051,141
471,-733,-270,-174,1,592,447,-243,-1009,-51
-1664,-695,15,254,613,1194,739,-107,-994,-1034
-2207,-501,-56,224,614,1135,707,0,-590,-1789
-382,567,-70,69,319,673,360,-69,-144,-1070
626,2150,-4,38,85,245,55,-123,167,-342
400,2522,19,37,-33,-57,-96,-9,416,-101
-219,2504,66,82,-25,-199,-274,5,338,-284
-186,2362,89,137,-8,-407,-494,-48,214,-501
494,1526,167,128,-52,-655,-635,59,431,-237
1011,332,182,47,-124,-778,-711,111,572,260
1342,-152,259,119,-79,-668,-663,-15,405,549
1423,-532,400,242,-1,-504,-534,-54,330,810
1161,-936,596,402,133,-256,-260,168,526,1002
526,-888,608,410,116,-183,-102,238,480,681
-611,-222,389,189,-197,-343,-179,78,207,367
-325,1730,-21,-219,-649,-504,-231,-14,116,764
199,3534,-138,-183,-503,-290,-29,55,50,833
-711,3595,92,275,92,255,339,185,-129,211
-1359,3660,223,398,301,531,552,164,-438,-471
-723,4406,-135,-174,-201,153,350,-12,-661,-542
159,5295,-413,-526,-419,66,271,-94,-684,-264
86,6114,-84,-117,46,370,229,-340,-900,-386
-105,6656,339,349,487,517,-22,-547,-726,-564
90,5575,342,346,483,429,-137,-341,-59,-520
-291,4694,33,69,226,209,-90,48,432,-361
-370,3552,-161,-125,-2,-63,-136,243,375,-465
283,2544,-306,-215,-188,-277,-222,274,362,-326
710,1212,-188,-160,-266,-375,-242,252,492,-30
468,-578,24,-70,-195,-270,-120,207,502,35
-36,-1934,140,-18,-56,-90,43,191,388,-81
-494,-2541,172,47,130,48,124,204,268,-121
-753,-2724,18,118,295,91,143,253,253,-45
-261,-2365,-197,202,297,-19,28,192,117,-31
645,-1476,-157,298,247,-66,-84,27,-68,107
1100,-985,-80,406,322,-4,-20,28,-9,317
966,-907,-144,364,408,104,88,22,71,411
-314,-1089,-272,38,199,103,108,-19,98,412
-1034,-1555,-355,-190,-79,114,138,14,71,234
-679,-1935,-171,-194,-269,63,196,197,134,107
-361,-2406,180,-69,-329,-48,163,244,109,-9
-144,-2836,334,-88,-317,-89,75,107,69,197
-134,-2950,298,-159,-240,-26,49,43,95,443
-162,-2807,295,-193,-225,-24,0,-22,-90,13
120,-2665,181,-250,-289,-207,-223,-241,-393,-484
314,-2517,168,-164,-195,-240,-246,-298,-413,-400
243,-2347,217,-30,-63,-167,-135,-202,-198,-79
53,-2187,118,-48,-43,-120,-42,-99,-1,181
163,-2058,25,-36,41,-28,16,-11,101,283
367,-1947,107,57,165,38,48,10,62,127
-22,-1847,108,87,193,62,64,-7,-13,-221
-213,-1735,54,25,102,-11,-58,-145,-81,-316
39,-1601,-20,-13,-21,-126,-210,-257,-145,-39
122,-1491,-20,2,-66,-141,-212,-124,10,356
-343,-1386,-38,-23,-127,-173,-213,46,228,601
-463,-1288,-61,22,-156,-210,-284,20,206,708
-384,-1199,27,200,-7,-14,-71,101,107,173
-177,-1110,-37,96,-33,-20,-84,-27,-113,-315
-284,-1045,-147,-50,-40,-36,-120,-167,-262,-397
22,-992,-131,-37,51,103,14,-175,-355,-714
238,-938,-62,-6,84,230,155,-111,-340,-812
57,-875,-59,8,127,335,290,6,-238,-580
-50,-817,-44,-24,152,345,355,73,-135,-338
0,-759,-42,-65,95,205,290,100,-42,-124
148,-681,-83,-144,-84,-47,118,43,25,103
99,-581,-61,-204,-170,-183,38,19,87,283
-83,-378,-72,-192,-41,-121,-21,-19,92,278
-94,335,-39,-143,31,-39,-79,-34,61,152
244,1596,-37,-159,-37,-40,-129,-112,-68,64
490,2864,-118,-247,-159,-137,-209,-226,-182,233
229,3726,-48,-185,-157,-148,-212,-173,-66,781
-186,4295,-6,-151,-142,-76,-95,-7,129,1249
-648,4495,-197,-250,-159,-26,16,62,126,1255
-252,4264,-274,-257,-78,215,213,95,24,584
1247,4069,-221,-208,35,534,460,100,-43,-474
1992,3519,-127,-67,235,837,735,142,-70,-709
375,2353,-128,125,545,1242,995,120,-407,-1381
-1871,955,-252,159,600,1254,992,104,-648,-2047
-2027,25,-133,218,524,909,845,321,-370,-1485
-888,-252,-123,106,265,315,510,377,-156,-687
-199,-287,-228,-68,62,-72,189,159,-123,-307
-241,-72,-342,-273,-170,-385,-92,91,58,9
-249,417,-243,-257,-274,-652,-348,82,224,194
208,1188,147,52,-95,-586,-403,15,295,302
674,2347,507,313,22,-576,-548,-152,284,385
755,3390,612,361,-32,-702,-771,-216,399,482
782,4168,457,328,-42,-663,-769,-139,439,630
705,5055,320,253,-75,-514,-582,-71,309,608
409,5784,195,122,-193,-492,-486,-37,233,496
446,6159,157,95,-209,-472,-462,-85,212,465
662,6434,120,94,-196,-433,-439,-151,195,542
336,6440,-41,5,-215,-341,-387,-168,115,460
-493,5721,-190,-73,-167,-177,-247,-64,85,287
-321,5042,-236,-160,-168,-88,-102,11,95,184
50,4523,-87,-118,-94,-10,57,125,180,55
-54,3866,50,19,41,62,148,167,275,65
-201,3342,33,94,92,58,103,93,292,273
-71,3178,4,51,32,13,60,75,189,235
389,3433,-79,-111,-114,-13,100,86,30,80
239,3534,-273,-366,-347,-21,237,242,106,134
-93,3649,-207,-356,-373,-127,140,176,72,67
36,3891,203,170,142,-38,-24,-178,-236,-233
499,4184,327,392,399,100,70,-199,-294,-135
401,4535,243,356,456,199,108,-198,-337,74
-494,4742,130,263,411,241,82,-242,-414,16
-952,4932,-79,19,201,176,14,-265,-400,56
-748,4927,-223,-194,-72,55,-27,-193,-244,-27
-468,4569,-214,-182,-153,22,-7,-59,-56,-238
44,3801,75,122,41,183,131,137,153,-156
265,2870,115,74,-61,59,42,190,355,73
-307,1698,77,27,-41,79,92,268,387,101
-738,595,49,168,198,296,323,301,279,-364
-234,-1,66,213,260,363,361,173,-33,-942
633,-145,53,23,50,198,183,-56,-205,-839
757,11,-101,-199,-152,25,13,-230,-291,-598
-57,69,-281,-289,-169,115,157,-94,-181,-177
-1004,39,-373,-264,-22,425,549,205,47,69
-1148,69,-320,-112,169,550,688,354,153,232
1224,4796,-13,-106,-145,-130,-116,-59,19,-87
144,3995,-108,-106,-153,-185,-208,33,165,17
-621,3029,-77,-13,-31,-6,-74,173,127,-178
-601,1769,-5,65,73,170,51,245,14,-450
-342,339,50,107,141,172,-11,150,-88,-328
-160,-958,222,222,158,102,-96,46,-65,-183
-81,-1955,368,363,176,35,-132,-40,-88,-279
34,-2752,277,302,157,-119,-183,-105,-26,-223
229,-3271,185,223,121,-221,-228,-101,168,62
553,-3989,157,186,90,-108,-165,-111,190,347
814,-4808,118,159,73,37,-55,-33,142,438
705,-4626,164,146,97,96,5,7,114,333
42,-4037,60,-83,-44,51,71,-70,27,216
-252,-3249,0,-269,-210,-93,-92,-301,-226,114
76,-2129,-187,-361,-278,-148,-165,-243,-260,335
-266,-1048,-346,-399,-289,-205,-88,-78,-117,533
-792,-255,-245,-284,-208,-188,73,66,-5,345
-840,57,-19,-70,-60,-94,173,193,85,70
70,415,46,-55,-97,-161,39,155,118,254
676,590,145,-31,-161,-297,-193,-30,37,445
277,19,233,159,41,-194,-198,-88,47,330
195,-684,148,231,142,-110,-135,-24,126,146
422,-1031,100,245,76,-131,-132,23,166,74
320,-1469,84,227,44,-131,-154,-13,131,64
-67,-2053,74,170,67,-65,-108,-44,-9,-168
-299,-2406,6,11,5,-17,-63,-79,-136,-406
-121,-2591,-41,-137,-102,-2,-100,-191,-280,-522
278,-2493,-39,-158,-107,10,-103,-260,-351,-388
445,-2170,-13,-152,-110,20,-48,-213,-263,-36
528,-1645,-20,-168,-113,23,15,-129,-160,171
455,-906,12,-86,-18,88,118,57,-19,208
-159,-102,23,-3,77,156,200,214,61,102
-507,464,-81,-92,-9,53,103,218,34,78
-342,862,-93,-145,-79,-30,-15,154,-44,139
-71,337,-75,-145,-111,-109,-103,27,-114,179
80,-527,-57,-110,-103,-167,-150,-63,-129,109
-24,-1230,-6,-22,5,-76,-93,-56,-73,-177
8,-2204,23,49,85,28,-4,10,43,-230
225,-2550,22,127,129,98,69,72,170,178
550,-3293,-42,95,68,40,26,13,119,460
849,-4268,34,82,74,35,31,5,4,320
432,-4627,29,64,69,62,70,55,-50,-124
-496,-5802,-135,-30,-11,17,55,61,-34,-420
-787,-5941,-68,-40,-7,12,52,99,120,-154
-394,-5508,-13,1,45,-12,-34,32,164,139
-139,-4960,-4,26,83,-48,-96,-21,97,141
-109,-3897,-74,6,65,-75,-104,8,116,150
-96,-2465,-192,-23,56,-60,-88,29,92,135
-111,-1371,-190,-80,-5,-92,-105,-20,13,77
-261,-402,-64,-60,-21,-52,-133,-83,-81,-70
-309,145,-35,1,37,83,-53,-105,-195,-242
-222,326,-29,64,106,137,-15,-126,-216,-258
-75,383,-3,80,131,138,-37,-125,-145,-121
-26,191,-29,57,144,152,-41,-129,-119,-55
-32,-253,-106,9,136,176,10,-150,-153,-92
-33,-625,-102,-37,68,121,96,-110,-114,-118
-41,-955,-62,-89,-77,19,155,-10,-70,0
-153,-1281,-28,-83,-148,3,180,83,24,175
-307,-1458,-21,-91,-222,79,271,231,133,293
-371,-1270,49,-48,-201,180,371,360,207,216
-23,-626,62,-36,-174,134,254,222,45,-50
674,319,-35,-170,-287,-38,37,-53,-151,54
821,1038,-149,-291,-357,-176,-36,-53,15,517
619,1652,-82,-138,-237,-232,-102,-68,19,438
695,2412,60,116,27,-87,-96,-134,-123,260
746,3238,-19,168,116,60,40,14,-50,504
371,3895,64,220,150,141,124,91,-37,534
-607,3999,87,172,128,213,237,150,-13,75
-1277,3709,-32,61,117,315,315,154,-71,-923
-985,3495,-37,10,119,348,258,74,-108,-1414
-476,2945,15,43,122,264,152,-1,-83,-965
-432,2043,14,98,152,211,76,-32,-76,-548
-202,1385,-137,43,99,111,20,-5,14,-223
86,1051,-227,-54,31,-43,-115,-87,-3,-56
85,694,-198,-87,-24,-158,-238,-188,-72,38
147,388,-181,-89,-80,-213,-303,-240,-156,151
484,420,-125,-89,-78,-177,-288,-221,-166,218
526,435,-36,-73,-1,-33,-139,-144,-139,123
-80,494,88,-54,28,42,-31,-102,-141,-21
-445,1033,59,-157,-95,-95,-101,-135,-37,127
-84,1111,-35,-187,-106,-103,-89,-145,97,216
-78,894,-95,-69,8,84,101,-40,127,141
-128,1355,1,68,71,87,109,23,137,163
395,1749,146,205,179,-117,-89,61,233,299
1369,1953,145,165,114,-387,-311,149,395,647
1997,1921,97,96,-2,-441,-356,181,508,1162
361,960,-6,114,31,-227,-161,247,554,1079
-1485,-598,4,257,255,16,35,253,509,740
-1610,-1560,45,409,395,122,63,103,216,-16
-712,-1653,92,317,237,20,-31,-61,-167,-938
-54,-1933,393,204,103,1,8,-32,-250,-934
411,-2409,527,30,-100,-81,-22,-81,-264,-666
475,-2567,311,-86,-181,-52,-15,-119,-283,-816
193,-2561,67,-119,-143,211,193,-37,-229,-941
-353,-2487,-119,-128,-33,579,526,82,-190,-704
-516,-1881,-311,-156,-22,726,670,56,-238,-399
-100,-1029,-188,-105,6,681,597,-43,-312,-125
81,-146,-75,-12,124,546,436,-126,-397,-55
-132,843,-121,-69,53,287,253,-116,-392,-43
-493,1707,-178,-177,-67,23,77,-119,-376,25
-415,2193,-210,-219,-43,-94,-73,-121,-374,75
-199,2368,-264,-278,-40,-129,-182,-63,-295,89
76,2463,-295,-363,-232,-349,-354,14,26,256
264,2218,-156,-327,-348,-566,-587,-37,231,362
220,1558,182,-97,-188,-614,-699,8,482,387
139,554,485,247,148,-345,-413,237,725,391
8,-700,585,487,409,-36,-14,362,532,210
571,-1421,474,415,305,-128,-7,196,264,202
1503,-1918,243,199,52,-429,-268,-156,-6,368
1848,-2200,99,68,-136,-570,-417,-321,-16,733
1125,-2458,78,66,-132,-427,-226,4,519,1259
-540,-2728,99,140,14,-112,129,518,1068,1407
-1621,-2269,14,21,-53,-21,160,489,828,870
-1984,-1577,7,-3,-70,20,121,273,375,-66
-1386,-636,97,140,47,173,199,201,-20,-1238
-92,667,156,140,-17,132,96,-39,-439,-1486
810,1536,35,-92,-314,-108,-100,-227,-451,-635
952,1766,-98,-271,-471,-248,-221,-323,-505,-242
425,1481,-56,-180,-351,-197,-258,-421,-638,-306
65,1027,-18,-75,-168,-73,-180,-299,-415,-361
-6,482,-70,-87,-112,-27,-95,-126,-99,-367
-28,-222,-106,-99,-67,1,-37,-30,46,-359
20,-879,-65,-67,-17,-6,-28,-26,102,-248
42,-1319,-7,14,76,44,40,43,209,-211
-69,-1635,10,59,148,126,133,79,195,-176
70,-1610,-82,-54,37,34,72,-42,-17,-24
309,-1314,-165,-163,-92,-82,-44,-153,-91,123
437,-798,-100,-115,-83,-72,-66,-132,-1,159
566,-345,26,-16,16,44,32,-41,80,76
391,-10,148,120,165,199,180,127,177,130
-51,680,51,46,104,139,129,132,201,277
-24,1718,-184,-150,-83,-101,-114,-70,62,221
-97,2493,-380,-251,-157,-205,-192,-117,-5,211
-632,2794,-294,-188,-67,-106,-100,-4,-34,132
-809,2490,-117,21,130,119,60,132,-35,-6
-519,2279,-67,211,283,247,149,207,2,-182
-50,1967,-10,239,253,194,97,158,-8,-296
230,1194,11,105,139,119,94,83,-11,-290
280,612,69,61,124,110,140,67,16,-180
-25,230,93,64,157,162,149,103,62,-47
-330,-195,-42,-30,105,207,162,96,45,-182
-92,-313,-188,-158,-72,101,94,-22,-68,-239
213,-108,-83,-108,-251,-47,57,-87,-111,-107
309,256,156,167,-142,-13,84,-194,-208,-113
41,660,223,318,69,115,185,-120,-144,-41
-599,1173,130,200,105,141,241,49,-26,163
-981,1750,61,65,97,141,230,148,103,540
-556,2627,-28,-70,53,87,163,175,173,687
169,3818,-89,-108,68,-10,49,160,135,594
533,4884,-135,-107,64,-136,-108,78,-5,172
18,5216,-144,-75,90,-116,-163,3,-91,-502
-277,5030,-142,-66,78,-26,-81,-37,-118,-796
141,4778,-73,-71,21,41,1,-97,-138,-459
218,4148,35,-29,22,99,-26,-158,-163,-179
-17,3333,72,-23,0,176,-30,-204,-230,-269
-14,2601,43,-71,-90,102,-107,-314,-221,-161
214,1950,103,-78,-140,49,-101,-361,-184,19
176,1298,139,25,-7,150,14,-344,-270,-105
79,671,64,23,19,21,127,-45,-148,-155
-33,659,-118,-115,-113,-104,79,103,57,-11
-106,918,-306,-240,-224,-174,-9,131,164,260
-72,1460,-373,-251,-241,-249,-99,68,155,496
187,2101,-272,-237,-216,-345,-216,-113,4,573
668,2869,-99,-211,-211,-415,-369,-236,-44,585
958,3406,94,-93,-158,-386,-418,-154,125,506
823,3404,243,91,42,-177,-240,-12,182,289
163,2925,342,270,262,84,11,139,271,179
-311,2558,287,279,318,101,0,117,273,360
-221,1971,156,290,416,124,49,160,241,588
-432,1069,-21,316,473,130,87,155,199,651
-404,436,-52,311,391,67,41,63,42,178
-113,-73,41,263,264,28,12,43,-8,-101
-539,-780,100,197,128,59,127,220,118,-370
-889,-1346,99,83,-76,94,251,377,216,-564
-49,-1109,181,-80,-400,-14,161,168,-43,-971
985,-418,257,-78,-536,-99,90,34,-197,-842
765,72,400,120,-393,-25,124,85,-120,-494
163,771,421,181,-141,161,123,2,-185,-398
-339,1409,259,185,146,386,217,-86,-304,-462
-773,1961,19,84,209,471,363,28,-252,-474
-646,2963,-170,-69,137,407,328,53,-277,-418
-204,4160,-315,-225,12,251,209,-4,-302,-213
-2,5083,-365,-278,-70,107,97,-25,-212,-42
45,5375,-362,-233,-93,-41,-78,-96,-80,17
1,4863,-219,-176,-83,-154,-264,-193,0,98
-7,3732,-139,-151,-95,-224,-359,-222,82,312
104,2591,-60,-56,-66,-203,-306,-86,192,463
209,1748,106,144,-7,-179,-266,-9,116,258
231,883,223,258,86,-130,-248,-89,-64,-13
136,-42,265,256,121,-74,-190,-68,104,63
209,-931,235,180,50,-130,-191,-61,247,447
345,-1590,211,153,25,-179,-184,-160,-5,611
462,-1871,134,143,16,-165,-102,-157,-118,785
231,-1829,-41,20,-65,-175,-107,-178,-185,862
-123,-1725,-204,-117,-164,-238,-177,-225,-290,641
369,-1564,-171,-137,-124,-148,-64,-22,-173,434
617,-939,-108,-177,-95,-58,-14,69,-42,34
-316,-308,-69,-217,-83,56,30,49,34,-477
-682,33,153,-125,-15,214,190,162,147,-737
-195,318,110,-163,-65,170,196,88,25,-726
-68,213,-8,-163,-104,68,145,90,105,-302
-12,-208,-85,-163,-115,-56,23,60,202,205
500,-764,-157,-221,-177,-248,-164,-112,68,486
500,-1524,-168,-221,-184,-263,-188,-135,6,327
325,-2326,-119,-144,-121,-127,-94,-89,24,-25
180,-3000,-92,-84,-47,11,84,40,215,-93
-234,-3670,-63,90,186,203,337,278,454,-138
-364,-3855,80,208,281,267,363,305,336,-180
175,-3480,198,184,207,191,184,103,64,-29
578,-2914,151,149,180,152,138,28,-21,111
519,-2138,143,154,206,218,220,84,-74,-98
-518,-1462,65,79,122,184,156,71,-67,-385
-1449,-913,-2,20,69,149,53,10,-5,-523
-1081,-83,-27,7,42,129,28,-39,-42,-515
-584,782,-80,-60,-39,8,-37,-132,-115,-228
-95,1599,-152,-105,-102,-106,-107,-171,-136,119
399,1924,-187,-138,-142,-209,-191,-205,-194,215
415,1592,-152,-63,-62,-172,-189,-156,-174,313
307,780,-15,91,74,-41,-49,-15,29,504
-461,-496,116,229,207,182,172,204,289,399
-1498,-3237,100,255,260,313,333,403,489,330
-1310,-5628,-6,99,111,150,213,362,466,432
-360,-5499,-83,-42,-19,-49,-17,109,87,162
544,-5243,-97,-91,-45,-111,-95,-32,-205,-170
598,-5088,-87,19,145,80,66,17,-251,-546
166,-4677,-133,35,198,192,161,64,-230,-608
268,-3770,-121,-92,30,84,2,-114,-360,-662
648,-2467,-69,-110,-8,152,-1,-183,-403,-522
644,-1087,-74,-136,-37,258,91,-125,-291,-253
132,170,-110,-185,-115,107,-34,-118,-202,-120
-196,1425,-51,-99,-79,-2,-184,-177,-216,-113
27,2533,-47,-78,-75,-51,-183,-123,-145,-58
108,3199,-178,-208,-195,-204,-240,-141,-96,129
-75,3537,-290,-271,-271,-280,-166,-149,-28,314
95,3629,-200,-39,-145,-248,-61,55,215,546
358,3160,-52,332,197,-86,48,296,477,705
209,2488,101,460,367,65,166,400,514,520
-159,1975,233,335,288,48,126,295,313,118
-409,1622,138,208,159,-30,12,96,94,-73
57,1651,33,52,-122,-266,-221,-157,-75,-99
508,1890,66,-60,-363,-480,-400,-304,-104,-30
537,2130,128,14,-294,-415,-386,-299,-51,171
388,2403,197,83,-204,-247,-214,-155,41,188
212,2763,224,68,-100,-62,-43,-5,155,212
-13,3292,162,39,13,15,-48,11,93,219
-63,3915,176,41,17,-15,-61,5,20,127
-134,4718,257,85,68,64,83,117,45,-64
-175,5573,156,30,29,86,111,139,13,-61
12,6055,7,-58,-55,47,57,80,-30,193
306,6138,14,-151,-148,-35,-48,-6,-12,501
416,5933,-66,-232,-220,-76,-91,-9,121,738
-61,5337,-95,-188,-196,-1,0,130,313,808
-1048,4383,-153,-114,-110,106,118,243,362,472
-1757,3383,-15,18,69,245,283,312,312,-101
-1243,2709,238,186,200,262,317,244,35,-586
14,2546,124,56,46,19,66,-14,-302,-844
593,2182,48,6,-45,-123,-80,-134,-369,-609
752,1698,80,61,-9,-106,-76,-120,-265,-287
676,1462,111,13,-39,-105,-126,-122,-215,-230
439,1294,111,-1,-42,-83,-157,-136,-206,-169
186,1282,43,0,7,-29,-116,-122,-225,-156
76,1401,-29,-30,21,6,-45,-85,-229,-171
45,1548,-58,-49,31,4,-57,-98,-208,-144
-1,1802,-41,16,91,94,-63,-170,-320,-207
-35,2039,-50,84,105,213,27,-192,-443,-179
-4,2046,-22,170,149,351,173,-189,-498,-27
21,1686,40,153,145,394,267,-164,-412,116
-116,1081,76,107,79,288,196,-133,-280,21
-353,257,39,24,56,152,92,-109,-215,-233
-289,-595,-108,-144,-62,-59,-27,-89,-79,-318
305,-1296,-220,-295,-230,-260,-163,-158,14,19
1193,-2073,-212,-316,-257,-243,-146,-240,-122,652
1687,-2893,-225,-343,-252,-190,-68,-240,-178,1111
1331,-3653,-178,-257,-188,-215,-75,-188,-149,1260
-108,-4178,-154,-147,-127,-239,-130,-161,-149,796
-1177,-4319,-148,-66,-120,-264,-169,69,293,375
-649,-3997,-24,65,-5,-148,-66,462,936,128
108,-3257,192,220,166,45,83,659,1158,-161
-172,-2875,311,356,334,236,252,775,1159,-124
-872,-2425,358,450,471,400,377,771,859,-353
-988,-1369,312,399,405,327,278,474,216,-1062
-427,-172,17,59,36,-14,-22,30,-212,-1200
-321,326,-22,-37,-98,-127,-140,-99,-158,-817
-298,412,76,36,-42,-39,-83,-65,-38,-549
-280,233,-6,30,30,81,47,11,-17,-413
-288,-364,-52,64,172,197,175,121,17,-181
-214,-885,-109,16,185,167,170,155,-61,43
-243,-1303,-186,-76,108,80,63,11,-312,32
25,-1557,-230,-166,17,0,-18,-121,-366,105
575,-1560,-344,-355,-217,-159,-108,-225,-240,522
588,-1570,-349,-379,-401,-248,-149,-245,-109,762
417,-1367,-218,-219,-339,-206,-126,-174,71,773
45,-1007,-52,-40,-193,-108,-66,-59,160,593
-548,-514,27,19,-121,-37,-25,28,204,260
-408,247,93,34,-17,4,-57,-8,204,51
91,1022,143,73,91,106,-21,-5,201,-171
555,1850,88,26,74,116,-30,-102,-77,-540
176,2392,128,81,111,173,33,-114,-224,-516
-381,2685,116,114,109,167,46,-70,-156,-394
-24,2805,198,117,55,105,20,-58,-117,-263
303,2534,178,73,-14,14,-22,-94,-121,-108
478,1953,30,-31,-128,-120,-119,-153,-117,110
716,1147,-150,-187,-300,-263,-223,-226,-187,405
1180,367,-288,-345,-431,-332,-235,-214,-116,795
1142,-622,-315,-324,-360,-279,-130,-59,162,1052
-112,-1873,-226,-134,-120,-76,77,214,438,880
-1398,-2828,-36,21,88,120,239,382,511,395
-1643,-3120,100,162,292,302,363,447,403,-174
-686,-2681,164,188,313,277,300,288,35,-781
607,-1872,154,90,162,49,80,37,-216,-773
1200,-1067,218,139,172,-28,-41,-47,-212,-392
719,-425,265,266,290,76,-62,-56,-118,-96
-602,136,98,205,251,150,-32,-87,-190,-231
-1026,922,-85,74,165,178,-21,-144,-291,-532
-627,1650,-158,22,151,272,79,-78,-187,-554
-575,1924,-168,68,247,435,188,-27,-154,-595
-606,1774,-149,110,305,505,283,-12,-286,-746
-417,1346,-190,33,191,393,350,98,-272,-638
-22,706,-250,-74,70,248,285,74,-237,-378
325,-80,-257,-72,38,121,162,7,-160,-4
-130,-960,-328,-205,-128,-60,93,40,61,271
-806,-1819,-357,-334,-301,-302,-26,10,122,218
-481,-2460,-43,-168,-269,-429,-135,-9,81,-15
475,-2576,112,-101,-246,-486,-301,-143,-3,87
757,-2599,19,-133,-248,-500,-451,-314,-136,73
473,-2771,59,-83,-163,-464,-511,-368,-130,178
816,-2478,210,-5,-111,-428,-531,-314,-35,442
1501,-2090,327,122,10,-247,-339,-112,36,483
1457,-2033,434,309,230,-3,-87,67,85,109
518,-1944,404,320,277,95,11,77,16,-251
-571,-2221,280,168,144,119,19,36,-17,-82
-1339,-2389,58,-47,-61,129,31,29,57,36
-1492,-2011,-155,-166,-127,91,4,-2,22,0
-1240,-1778,-250,-139,-77,90,24,2,105,27
-901,-1658,-128,-65,7,136,110,103,310,71
-487,-1932,17,54,135,222,287,210,320,-87
517,-2078,49,47,79,128,299,178,154,-69
613,-2245,61,66,19,1,163,164,167,267
206,-2492,64,137,48,-32,110,191,284,497
273,-2464,-34,-1,-45,-149,8,69,173,309
464,-2219,-269,-244,-209,-355,-243,-144,-70,-31
720,-1858,-192,-253,-203,-369,-317,-178,-90,134
595,-1548,-52,-113,-97,-230,-199,-126,-75,221
349,-1102,23,-55,-86,-125,-57,-32,-63,83
258,-486,115,-42,-138,-146,-113,-4,-80,-56
227,129,171,0,-112,-168,-249,-83,-66,-148
240,891,87,-39,-119,-154,-245,-109,3,-65
440,1710,-5,-90,-125,-67,-165,-230,-104,169
415,2044,-64,-84,-35,114,-67,-188,-105,392
274,1825,-99,-35,55,242,96,-19,-93,362
172,1420,-7,107,111,305,331,139,-183,170
9,874,106,261,191,390,524,167,-376,-47
-226,164,245,283,182,325,454,2,-659,-368
-378,-564,369,347,283,252,366,-125,-774,-606
-647,-1395,222,336,397,186,268,-217,-831,-722
-876,-2056,-107,139,152,-138,-10,-317,-728,-566
-288,-2570,-302,-92,-141,-387,-206,-43,143,123
200,-2788,-390,-300,-308,-423,-199,378,1240,858
-93,-2614,-331,-394,-395,-354,-212,309,1287,1029
-717,-2279,-174,-316,-369,-255,-214,142,914,679
-1461,-1945,59,-31,-140,-105,-116,182,712,-210
-1129,-1400,293,252,124,117,39,140,264,-827
255,-490,280,201,164,179,102,19,-73,-463
926,356,244,173,234,270,202,59,-58,-199
617,1008,152,99,182,299,257,163,-37,-213
89,1076,68,-2,90,308,288,259,-20,-397
58,845,29,-36,55,298,281,185,-91,-851
486,648,-50,-72,-32,161,135,36,-161,-654
296,-190,-49,-51,-21,102,39,-6,-88,-220
140,-1180,-108,-111,-74,-9,-3,-8,1,10
269,-1985,-114,-113,-77,-116,-85,-74,10,165
323,-2787,-82,-95,-85,-196,-178,-155,16,320
277,-3691,-32,-63,-78,-240,-193,-134,100,439
334,-4337,76,16,-31,-193,-160,-74,130,520
340,-4434,153,97,45,-73,-103,-84,40,413
119,-4311,126,110,70,2,-134,-191,-159,97
9,-4029,58,85,52,9,-188,-296,-354,-121
-65,-3419,-80,31,42,56,-157,-339,-474,-224
-209,-2683,-225,-51,75,112,-59,-251,-364,-137
-503,-1978,-210,-25,173,197,49,-92,-109,102
-383,-1006,-148,-28,169,210,56,-77,-67,151
-258,-52,-76,-91,50,191,93,-42,-50,41
-325,447,-101,-196,-33,231,175,75,10,-118
-298,531,-149,-213,16,347,325,180,120,-60
-541,415,-245,-251,26,451,472,214,119,59
-453,231,-320,-321,-44,362,406,53,-199,-273
129,54,-83,-105,78,251,211,-175,-478,-423
399,-126,161,189,221,167,48,-221,-373,-194
427,-363,164,204,113,-8,-17,12,-11,-4
29,-665,22,70,-22,-94,2,219,171,2
-382,-634,-41,-14,-103,-176,-41,262,231,-18
-53,-106,23,-42,-221,-426,-223,239,345,236
490,742,111,-13,-232,-591,-445,61,260,443
911,1836,118,27,-182,-619,-528,-73,182,648
838,2674,112,105,-55,-469,-437,-115,177,828
225,3264,197,193,137,-191,-212,46,356,875
-450,3942,287,260,248,2,-42,120,313,682
-886,4594,290,282,183,-12,-22,49,34,39
-272,5132,253,246,97,-54,-36,13,-120,-463
214,5269,179,167,54,-66,-46,98,26,-380
94,5161,25,22,-72,-128,-108,99,108,-331
-222,4636,-16,31,-37,21,-6,57,22,-464
-127,3751,17,102,56,243,167,91,66,-260
436,3092,71,137,66,250,198,34,28,-71
1116,2718,60,72,-15,120,124,-71,-169,-59
661,2238,-140,-130,-169,-94,-41,-197,-308,-56
-967,1472,-399,-361,-298,-269,-132,-172,-192,130
-1023,1065,-398,-342,-214,-171,-69,-28,-94,481
-408,1174,-229,-172,-13,35,0,-36,-213,532
-211,1536,-149,-127,53,16,-104,-216,-391,160
-345,2139,-129,-51,116,-87,-244,-339,-282,-202
-308,2734,-49,135,256,-57,-257,-241,162,-242
281,3392,-8,165,227,55,-120,-36,419,143
82,3952,-47,113,197,205,85,176,392,402
-472,4558,-64,39,143,169,54,193,269,205
-494,5060,-125,-130,-32,121,26,205,255,30
-95,5181,16,-41,5,187,110,196,123,-447
668,5100,240,172,78,49,-18,34,45,-257
849,4510,228,120,-96,-118,-52,108,344,433
355,3702,50,-47,-190,-136,-16,77,209,251
109,3236,-257,-238,-202,-12,25,-94,-186,-272
61,2700,-335,-243,-96,321,227,-144,-410,-485
-88,2031,-227,-116,44,536,406,-85,-394,-387
-222,1573,-86,49,151,518,440,-15,-293,-253
-331,1540,200,206,181,357,361,-2,-233,-267
-555,1827,366,149,76,135,234,-3,-146,-260
-517,2448,164,-60,-76,9,148,9,-120,-450
99,3186,32,-145,-170,-143,28,72,9,-242
300,3775,104,-59,-181,-340,-187,127,276,71
-26,4279,197,20,-181,-463,-395,23,307,125
-15,4625,231,64,-158,-435,-397,-63,163,107
279,4758,95,67,-30,-95,-116,12,151,291
220,4345,-36,-46,-66,-68,-46,-59,68,441
114,3795,-141,-154,-127,-176,-106,-166,-11,569
206,3062,-136,-137,-219,-369,-275,-226,11,863
534,2352,4,23,-239,-507,-376,-234,-20,980
465,1625,8,-2,-234,-523,-383,-252,-168,438
-152,624,65,34,-90,-360,-281,-95,-171,-205
-25,-86,166,101,103,-157,-125,151,-97,-385
669,-47,244,121,140,-61,-31,266,-16,-642
696,-120,260,227,124,47,25,227,-28,-772
122,-239,56,176,17,122,17,21,-124,-419
-634,-126,-204,-75,-129,236,137,-113,-116,-182
-693,202,-317,-320,-254,283,369,38,45,3
-298,568,-223,-303,-207,285,453,177,28,178
-218,992,-19,-72,14,319,472,106,-151,241
-259,1465,53,71,155,315,427,-29,-239,168
-228,1760,-46,11,170,205,321,-58,-172,292
-401,1661,-130,-23,161,33,112,-144,-195,265
-446,1346,-60,135,279,2,-6,-154,-170,32
-393,728,125,326,390,74,-11,0,48,-275
160,123,194,282,272,-8,-137,3,160,-609
936,-291,150,110,81,-67,-214,-52,104,-473
893,-1093,57,-46,-2,40,-32,37,95,-202
18,-2164,1,-53,84,265,203,121,96,-137
-402,-2864,43,14,192,466,296,50,62,-71
-645,-3199,-82,-75,115,457,270,-19,37,0
-883,-3450,-279,-185,38,420,291,41,17,-231
-113,-3202,-205,-179,65,365,326,181,44,-397
-91,-2844,-112,-144,62,212,308,365,219,-189
-263,-2382,-105,-133,-2,-79,66,358,329,149
-78,-1718,-42,-68,-1,-222,-163,237,348,420
162,-911,-41,-73,-25,-152,-208,150,320,513
475,-177,42,14,33,42,-125,-72,-13,348
704,162,138,138,116,177,-43,-311,-408,237
645,68,171,185,119,144,4,-394,-650,417
521,-90,164,122,-24,-139,-107,-459,-834,561
539,-522,184,83,-144,-387,-270,-529,-919,514
234,-1184,137,-10,-194,-426,-312,-399,-572,418
-85,-1762,-37,-174,-302,-515,-361,-131,88,258
-131,-2275,-208,-318,-350,-531,-370,96,660,65
-355,-2650,-195,-273,-249,-545,-438,87,885,-16
321,-2510,-44,-137,-144,-619,-556,-74,799,442
1375,-2044,39,-38,-30,-525,-448,67,769,1218
1421,-1685,159,154,230,-158,-29,467,903,1268
-141,-1347,183,216,347,130,322,727,794,146
-1420,-621,91,120,154,111,314,640,422,-1055
-883,476,-50,-83,-244,-160,56,274,-45,-1370
253,1525,25,-91,-410,-192,-17,35,-199,-900
392,1990,213,117,-168,138,132,-35,-241,-756
-419,1964,281,241,94,285,210,0,-147,-613
-621,1882,124,81,-31,166,164,103,40,-192
-283,1703,-26,-113,-245,14,153,183,91,3
-273,1179,50,-10,-122,-28,18,-45,-138,-144
-235,289,93,112,42,1,-98,-220,-284,-237
-156,-623,-62,23,-22,-44,-90,-169,-265,-134
-84,-1368,-113,-73,-88,-54,-36,-90,-253,-36
61,-1951,-122,-109,-113,-67,-58,-102,-284,132
114,-2348,-88,-82,-54,-5,-78,-206,-342,233
79,-2500,37,22,51,103,-26,-202,-250,227
-115,-2609,73,117,152,200,149,23,101,341
-426,-2467,57,140,160,132,190,162,348,410
-698,-1935,7,131,159,75,110,139,320,170
-580,-1256,-40,128,171,52,21,76,178,43
337,-211,-202,-100,-124,-235,-244,-78,-4,329
888,982,-378,-344,-406,-499,-549,-390,-240,434
563,1538,-158,-138,-135,-212,-430,-387,-301,264
798,1784,179,72,91,133,-98,-95,-136,228
808,1721,214,40,88,208,53,17,-56,45
221,1310,117,-36,47,148,106,-10,-69,-461
-529,463,31,-22,95,211,262,25,-131,-993
-823,-648,61,87,240,365,404,48,-216,-1049
-542,-1540,-27,125,270,457,422,63,-174,-602
-432,-2266,-258,-40,114,558,482,106,-188,-400
-530,-2945,-462,-253,-76,593,582,183,-192,-392
-660,-3551,-658,-366,-193,484,519,154,-184,-348
-799,-3879,-652,-342,-147,351,317,-57,-276,-231
-692,-3900,-490,-287,-46,280,251,-77,-200,199
-365,-3724,-276,-115,123,305,319,96,20,663
82,-3296,-37,50,252,200,243,214,169,832
553,-2546,103,11,188,-89,-77,18,-44,350
1123,-1602,368,107,188,-333,-383,-211,-284,-331
1472,-676,479,194,197,-459,-560,-290,-253,-485
1044,-59,510,267,199,-483,-648,-328,-118,-254
-185,-176,521,344,249,-311,-493,-127,191,-252
-727,-414,416,270,95,-303,-405,32,474,-186
-18,-618,336,177,-36,-360,-399,69,555,123
508,-1284,226,75,-135,-381,-339,73,482,284
397,-2323,212,127,-126,-282,-154,143,436,216
107,-3225,168,220,-73,-155,-20,129,360,135
-277,-4003,126,164,-64,-13,167,148,239,101
-630,-4592,-106,-96,-163,299,460,33,-178,-75
-683,-4745,-418,-369,-187,713,707,-171,-706,-264
-569,-4440,-478,-336,50,997,750,-403,-1091,-401
-365,-3669,-325,-169,211,954,574,-506,-1242,-349
-211,-2641,-224,-130,128,507,236,-428,-1046,-269
-226,-1727,-184,-76,176,180,-80,-309,-567,-249
-225,-825,-308,-127,169,-98,-234,38,151,-188
-55,295,-296,-84,195,-360,-379,301,684,-47
319,1494,-97,77,277,-331,-375,281,788,241
433,2334,156,270,375,-213,-304,152,511,457
411,2650,315,339,275,-265,-368,-28,321,621
424,2667,318,220,-56,-367,-403,-68,458,736
702,2472,338,127,-326,-504,-384,12,647,580
1073,2070,298,18,-591,-773,-458,45,645,586
859,1529,178,-26,-701,-914,-502,74,582,720
410,916,172,68,-564,-840,-424,129,508,674
-137,333,139,106,-372,-606,-227,229,441,422
-545,-156,84,68,-234,-356,-27,217,279,-61
-386,-351,114,124,-184,-224,46,113,162,-313
-223,-335,202,280,-67,-78,123,99,187,-185
215,7,330,475,188,129,178,27,-12,-280
670,630,310,492,295,193,133,-101,-239,-215
147,1076,223,332,216,200,151,-45,-219,-158
-350,1578,77,126,150,214,186,44,-183,-269
-228,2372,-217,-108,76,170,115,-16,-264,-273
-18,3103,-470,-363,-73,109,32,-106,-331,-156
20,3331,-318,-389,-94,164,83,-60,-333,-58
0,3128,-156,-324,-53,273,166,-6,-349,27
-34,2812,-57,-253,-16,338,206,7,-342,139
-113,2184,-32,-212,-5,313,215,48,-214,151
4,1454,-76,-219,-20,246,207,88,-9,36
92,855,-52,-230,-88,48,75,4,-6,-152
-63,26,38,-131,-14,-24,-1,-54,24,-430
-8,-751,101,-23,92,30,46,54,197,-315
-158,-1124,0,-40,91,81,143,226,358,48
-271,-1106,-119,-47,43,28,90,193,321,145
-423,-983,-184,-40,21,-33,-10,92,227,-36
-523,-689,-99,0,68,18,19,111,188,-102
-545,-191,18,73,115,179,104,85,25,-184
-507,304,-120,-9,103,470,314,59,-193,-424
-439,909,-337,-171,57,673,493,53,-278,-384
-94,1637,-369,-203,22,574,391,-12,-318,-126
195,2259,-199,-68,96,381,143,-68,-254,161
193,2378,-118,21,161,221,-21,0,15,436
325,2211,-297,-216,-65,-149,-252,4,145,491
293,1792,-426,-390,-260,-500,-418,95,238,199
349,1153,-258,-260,-170,-525,-311,193,278,-118
80,477,18,25,34,-358,-277,15,120,-87
-73,-23,179,158,38,-394,-528,-318,-48,359
458,-253,277,189,-71,-516,-687,-505,-227,479
898,-491,252,204,-62,-371,-316,-370,-319,127
871,-738,208,239,7,-182,72,-141,-237,86
546,-754,271,199,-1,-174,63,-53,-170,220
2,-337,156,22,-102,-264,-50,-76,-109,448
-360,700,43,-11,-82,-188,3,8,38,766
-465,1553,-1,14,-30,-24,172,318,488,1000
-274,2396,92,0,-40,1,230,434,652,824
-713,3261,211,107,54,122,333,376,401,91
-1224,3936,190,281,214,206,362,328,166,-891
-371,4511,214,386,290,112,125,-17,-318,-1510
437,4646,108,142,47,-145,-192,-381,-600,-1365
498,4456,-116,-202,-212,-174,-164,-279,-386,-766
172,3598,-79,-242,-176,14,80,-12,-185,-334
343,2575,112,-99,-76,52,68,-35,-220,-139
667,1804,159,0,-13,102,-3,-172,-297,-104
469,940,73,12,-33,206,72,-207,-409,-227
-335,37,3,-5,-75,190,103,-262,-526,-325
-812,-782,-28,49,37,218,161,-199,-514,-230
-614,-1517,-89,89,92,212,165,-199,-629,-69
-294,-1853,-94,124,134,227,170,-192,-778,12
24,-1846,-88,65,121,167,46,-141,-590,152
-55,-1805,-156,-59,94,192,-1,-65,-226,220
-333,-1814,-280,-131,144,392,156,10,62,184
-280,-1532,-261,-123,180,461,196,77,403,232
-69,-1020,-164,-176,84,298,88,139,671,301
252,-518,-187,-285,-75,-13,-86,83,582,182
641,-261,-224,-360,-255,-308,-247,-26,366,38
1264,-453,-188,-308,-391,-499,-332,35,346,256
1050,-1290,-73,-123,-297,-423,-192,283,586,533
363,-2543,194,114,-40,-170,112,563,878,638
104,-3656,476,368,181,2,249,569,811,335
-405,-4523,455,444,250,38,188,418,501,-50
-856,-5105,235,274,99,-86,56,302,246,-138
-931,-5477,208,204,105,-94,27,220,-8,-311
-431,-5443,133,139,91,-136,-17,85,-199,-359
-15,-5078,-26,-15,-86,-191,-88,-66,-290,-269
56,-4640,53,65,-17,-91,-139,-307,-431,-255
-6,-3997,127,124,111,10,-116,-366,-377,-216
29,-3155,29,0,60,86,-29,-195,-130,-98
-62,-2351,-3,-67,-18,134,68,-22,41,3
-103,-1385,-60,-38,-8,136,67,15,-36,-15
-34,-373,-115,-47,-28,53,23,62,17,38
-63,362,-124,-98,-19,67,58,121,210,173
-152,573,-200,-166,-15,163,114,93,291,306
-134,444,-263,-260,-125,51,12,-20,265,406
-9,14,-290,-302,-147,21,-23,-20,217,390
115,-844,-267,-228,27,153,76,7,183,427
114,-1664,-190,-108,178,188,43,-121,36,452
-279,-2439,-20,66,255,179,-27,-233,-128,351
-1042,-3415,65,157,272,197,10,-181,-205,-285
-417,-3941,45,116,117,-61,-159,-247,-335,-836
486,-4029,225,294,41,-215,-256,-269,-391,-780
274,-4174,390,462,82,-219,-180,-64,-130,-322
288,-4139,345,367,37,-261,-163,2,-46,-171
390,-4236,273,209,-52,-271,-136,-10,-45,-30
224,-4146,110,105,-152,-341,-211,-75,-39,218
298,-3360,-11,45,-228,-413,-292,-119,-11,404
482,-2377,-39,20,-228,-379,-261,-113,44,573
386,-1601,-78,-77,-176,-91,-12,56,182,701
74,-1181,-268,-273,-201,173,221,262,302,713
-448,-1108,-358,-295,-195,208,216,239,227,419
-436,-1207,-23,-32,-1,177,109,68,24,73
104,-1416,183,-31,-46,86,88,-6,-126,-223
393,-1928,225,-92,-73,97,202,98,-88,-331
14,-2418,35,-193,-74,39,170,68,-111,-223
-222,-2752,-132,-189,-45,30,111,-71,-290,-243
-66,-2804,-151,-159,-43,84,128,-104,-386,-348
-269,-2789,-36,-83,13,164,202,-7,-307,-543
-413,-2502,147,5,52,125,199,98,-139,-392
-149,-1892,163,-2,49,75,162,159,53,-80
32,-1164,87,-5,77,66,167,215,254,31
95,-222,70,27,157,123,173,168,237,-65
128,767,11,-36,92,66,52,12,37,-51
19,1770,-58,-93,-10,56,-56,-133,-72,26
-343,2703,-98,-59,-18,122,-41,-151,-149,-17
-578,3397,-75,-2,2,91,-43,-141,-203,-89
-409,3530,11,66,73,94,-25,-112,-130,-29
136,3400,0,-1,-2,-56,-53,-35,85,165
923,3336,17,-81,-160,-298,-211,-76,101,343
1203,2843,91,23,-88,-294,-279,-145,16,330
1075,2092,22,5,-64,-220,-241,-71,141,469
566,1210,53,46,4,-161,-146,139,335,549
-64,500,122,102,73,-138,-154,153,306,306
-125,236,107,72,16,-213,-295,-107,37,219
-202,-85,146,138,36,-197,-327,-246,-153,100
-413,-82,107,160,37,-136,-276,-212,-272,-326
-74,261,156,194,78,-41,-135,-63,-251,-388
-229,676,152,198,99,22,-42,32,-178,-171
-401,1289,60,136,48,-36,-98,72,77,-32
-189,2009,-40,61,-11,-104,-139,127,344,229
-143,2854,-110,2,28,-16,-52,177,339,250
-163,3608,-146,-9,119,150,120,281,443,67
-8,4122,-143,-126,62,184,152,242,399,67
146,4376,-91,-311,-176,20,53,122,222,10
47,4495,-187,-408,-361,-115,-36,29,120,-35
-102,4359,-222,-350,-450,-190,-148,-118,-5,224
32,3605,-264,-383,-553,-200,-136,-134,4,462
-120,2465,-264,-341,-467,-106,9,-21,79,572
-455,1256,-17,21,-1,174,219,78,83,504
-304,295,349,469,530,469,356,32,-130,231
486,-85,429,547,599,420,299,-169,-547,-306
401,-154,137,245,279,202,168,-271,-728,-642
-231,-265,-35,9,38,72,79,-216,-648,-772
-22,-218,-146,-53,-4,64,49,-90,-265,-463
347,189,-80,-32,2,86,42,39,95,-213
480,732,49,19,23,105,21,196,256,-398
381,1278,41,77,87,104,22,193,108,-642
-197,1681,-38,101,115,100,82,157,48,-526
-551,1925,-164,129,121,122,183,250,213,-312
-372,2102,-180,87,75,41,80,131,137,-189
-278,1838,-63,25,68,29,9,-25,15,-146
-283,1232,-77,-80,-30,-11,-40,-93,33,15
152,459,-132,-182,-184,-161,-137,-113,77,342
704,-454,-1,-91,-157,-210,-85,41,248,777
701,-1355,40,30,-7,-72,49,185,333,1071
267,-2212,-111,-11,8,-34,33,150,214,807
-76,-2993,-137,-94,-79,-66,33,99,122,255
50,-3725,-121,-136,-97,62,267,223,76,-257
330,-4011,-154,-234,-141,126,378,258,-83,-680
-654,-4182,-172,-51,85,358,308,-112,-501,-1034
-1437,-4131,-172,194,296,504,132,-478,-811,-1175
-852,-3602,-144,107,164,420,113,-349,-630,-785
-552,-3207,-100,99,203,463,140,-239,-522,-611
-551,-2792,20,214,367,532,140,-269,-532,-644
-557,-2210,18,182,437,392,70,-254,-398,-489
-527,-1716,-95,74,317,87,-11,-81,-109,-206
-227,-1611,-75,32,238,-188,-144,45,60,13
282,-1793,-6,72,263,-158,-125,59,113,224
722,-1860,174,68,179,-268,-190,70,272,724
788,-2205,286,104,155,-385,-369,-32,378,1160
416,-2742,279,64,63,-350,-288,11,460,1202
65,-3107,196,-71,-224,-447,-253,64,436,868
230,-3242,175,-81,-404,-600,-330,-50,172,241
797,-3197,296,-29,-480,-652,-355,-80,54,192
976,-3121,269,-85,-569,-641,-326,-13,96,489
325,-3095,16,-155,-472,-378,-164,12,4,317
-375,-2907,-180,-178,-353,-133,39,83,0,120
-474,-2257,-124,-125,-270,-80,61,67,26,-38
-362,-1521,39,0,-80,42,135,129,196,-48
58,-669,9,-31,-18,73,181,183,263,119
451,406,107,100,153,114,186,138,158,152
58,1292,147,325,344,180,220,159,46,-220
-284,2106,35,468,328,75,110,97,-57,-565
-377,2316,-22,465,241,98,101,117,6,-428
-209,2203,-114,317,171,167,152,60,2,-238
47,1866,-81,126,105,256,215,-14,-121,-227
442,1382,-204,-157,-92,220,242,-26,-211,-185
429,733,-253,-298,-237,7,123,-49,-165,112
-78,-132,-20,-217,-147,12,78,-65,-116,41
-37,-827,257,-142,-87,31,61,-63,-116,-72
624,-1278,231,-152,-109,-22,28,-11,-36,43
894,-1431,98,-193,-123,-103,-29,-22,-81,67
499,-1423,75,-166,-83,-120,-84,-136,-278,-25
-195,-1462,35,-134,-46,-74,-68,-198,-370,-133
-740,-1412,-31,-108,-4,37,26,-106,-212,-181
-889,-1033,-26,-86,21,125,86,27,16,-276
-349,-375,-35,-83,11,167,103,86,60,-335
54,403,25,-28,8,182,21,66,114,-216
-185,990,89,35,64,228,4,81,162,-151
-295,1301,61,36,56,153,44,137,83,-45
-35,1285,11,19,23,-31,-17,26,-75,185
457,1024,23,-9,-41,-286,-259,-236,-233,481
688,395,-41,-7,-40,-340,-365,-379,-375,683
807,-386,-160,-28,-68,-282,-317,-329,-307,827
918,-1071,-116,-122,-197,-296,-273,-189,-58,786
445,-1661,98,-77,-194,-272,-217,-36,152,404
284,-2059,235,75,-24,-182,-136,40,266,242
-327,-2512,195,190,135,14,26,228,600,107
-976,-2559,25,92,62,102,115,324,828,-240
-831,-2199,92,132,112,203,204,294,596,-499
-685,-1563,52,104,170,258,274,267,219,-745
-236,-253,-223,-230,-150,-33,30,53,-122,-730
9,945,-344,-453,-447,-335,-192,-33,-159,-355
-51,1874,-213,-364,-408,-396,-243,13,12,-161
135,2686,-67,-125,-149,-170,-96,139,198,-159
44,3053,65,106,146,140,169,350,478,-70
-247,3054,102,245,335,288,264,410,576,81
-290,3075,59,242,312,185,69,144,249,117
142,3033,55,106,134,-10,-146,-87,-55,-70
434,2619,-13,29,27,-102,-204,-165,-235,-294
423,1977,-71,-48,-78,-193,-260,-201,-335,-319
436,1237,-99,-118,-128,-166,-172,-83,-240,-195
553,446,-114,-40,-27,48,90,157,-39,-116
231,-552,-38,58,94,269,382,329,71,-193
293,-836,-62,1,30,209,321,148,6,-132
816,-606,-75,-85,-37,145,181,-15,63,209
-97,-625,-184,-158,-77,100,108,13,168,273
-966,-485,-153,-86,-24,75,29,28,116,114
-946,49,-83,35,180,194,-7,-61,-90,-194
-927,821,-131,21,277,292,-20,-140,-323,-458
-633,1580,-126,109,415,385,37,-145,-390,-398
-156,2399,-40,168,407,254,0,-168,-377,-158
-115,2928,132,318,485,202,22,-228,-436,-293
-274,2859,257,461,526,278,191,-125,-385,-492
-281,2599,169,347,266,133,209,-16,-278,-377
-282,2085,91,232,76,94,196,41,-224,-197
-144,1415,79,62,-111,6,87,-19,-244,-115
27,756,64,-28,-265,-170,-102,-139,-220,-103
233,169,9,-166,-424,-280,-170,-127,-38,31
180,-441,-23,-297,-436,-218,-64,57,360,213
-74,-1071,-22,-220,-291,-80,86,275,652,406
-396,-1273,94,5,-26,124,185,271,521,492
-467,-1104,119,127,196,300,290,266,379,463
-152,-587,109,123,273,258,243,229,210,186
533,458,101,-8,71,-94,-47,6,-49,-240
849,1472,-66,-237,-261,-373,-265,-217,-232,-244
697,2349,-247,-473,-515,-478,-314,-250,-221,21
1097,3397,-198,-526,-584,-501,-337,-208,-114,272
878,4042,-18,-273,-335,-279,-288,-225,-129,328
103,3963,111,14,-79,-109,-92,-42,-44,378
-241,3698,211,164,27,-106,-31,-11,-26,406
-301,3319,287,269,122,-103,-71,-102,-67,298
-673,2379,320,333,275,69,29,-8,-76,-7
-727,1415,253,286,300,143,53,8,-116,-189
-368,735,161,175,211,98,-13,16,13,-42
-237,185,88,57,78,-9,-93,121,151,-71
18,-302,-1,-56,-35,-61,-134,122,142,-118
425,-807,-40,-89,-30,41,-69,31,73,83
564,-1120,-26,-58,44,199,102,-38,-80,226
536,-1124,-30,-27,103,329,230,-55,-122,275
102,-893,-137,-61,73,341,259,19,19,5
-704,-607,-261,-120,3,338,267,71,-19,-540
-617,-394,-226,-100,36,392,317,90,-86,-728
-241,-160,-83,-56,76,319,258,94,63,-458
-280,206,-2,-67,23,117,48,25,208,-148
-232,584,-71,-106,-16,7,-85,24,173,-75
-9,560,-21,-34,-16,-102,-200,-8,29,-25
323,315,144,92,25,-203,-310,-198,-167,373
453,-120,304,194,19,-307,-410,-417,-375,640
308,-911,383,291,78,-297,-463,-541,-543,527
365,-1664,287,192,3,-284,-392,-459,-523,196
433,-2348,150,28,-134,-314,-230,-118,-127,41
203,-3032,73,-33,-207,-339,-162,206,378,-44
202,-3343,-52,-165,-303,-345,-196,178,447,-104
221,-3256,-106,-204,-268,-276,-156,123,447,58
206,-3014,-9,-50,-67,-115,-34,204,498,241
253,-2669,15,42,72,18,89,264,503,494
144,-1961,-6,78,190,116,156,253,433,509
327,-1097,2,74,239,128,167,245,485,400
375,-245,-13,74,192,83,106,169,409,55
513,811,-196,-58,16,-70,-60,-49,118,-255
144,1848,-387,-171,-113,-286,-285,-254,-114,92
-764,2235,-346,-53,-59,-271,-271,-192,-57,416
-1053,2166,-106,92,48,-43,-43,-21,-32,123
-609,2255,71,23,-39,-11,-21,-145,-380,-690
-163,1829,126,0,-87,44,30,-197,-547,-1123
-332,603,251,213,74,332,324,118,-230,-773
-728,-700,442,479,322,609,568,394,66,-344
-665,-1488,374,384,215,464,432,353,66,-62
-35,-1866,125,55,-62,121,122,153,-18,118
487,-2133,-205,-226,-229,-188,-129,1,-71,206
520,-2298,-269,-257,-252,-312,-259,-113,-155,214
389,-2212,-134,-111,-152,-199,-235,-156,-190,79
117,-1818,-60,-82,-91,-104,-180,-178,-253,-84
-88,-1188,72,-67,-17,2,-65,-115,-160,-131
-304,-455,31,-77,39,123,103,-25,-97,-198
-169,428,-52,-48,116,305,405,128,-35,-168
165,1545,-112,-50,109,335,436,66,-149,110
150,2433,-86,-19,93,211,214,-50,-257,379
-35,2765,-124,-68,-5,87,72,91,16,573
-252,2720,-179,-186,-119,-36,-31,94,192,519
-514,2328,-119,-181,-135,-113,-117,1,197,-113
-212,1740,-79,-146,-126,-209,-241,-169,75,-575
126,1001,-34,-38,18,-190,-216,-134,148,-273
152,229,9,75,164,-84,-92,37,271,123
-48,-504,-65,20,117,-34,0,100,227,254
-124,-1125,-138,-62,56,44,73,63,138,268
-15,-1475,-121,-78,53,95,93,25,68,156
-146,-1455,-36,-18,80,136,88,-13,1,-100
-154,-1120,72,-25,-43,177,67,-99,-140,-376
16,-672,-23,-133,-198,254,114,-105,-291,-576
-2,-221,-30,-63,-80,408,180,-67,-389,-589
11,267,100,119,117,339,121,-97,-411,-477
39,755,24,119,146,235,116,-7,-279,-235
41,1182,-20,75,122,147,133,52,-113,0
22,1415,1,40,67,12,19,-23,-38,160
-81,1290,-21,-45,-48,-131,-124,-94,47,331
153,1010,-61,-153,-122,-205,-218,-113,80,480
552,577,-36,-220,-132,-214,-292,-131,85,603
690,-219,101,-47,-24,-175,-278,-73,116,647
643,-1023,178,146,-25,-256,-261,46,370,745
296,-1669,205,193,-35,-249,-238,96,441,544
-325,-2287,210,187,18,-120,-146,23,178,195
-598,-2830,167,141,-22,-78,-153,-117,-100,-91
225,-2882,52,29,-39,-31,-95,-142,-159,-35
578,-2757,-94,-121,-89,-2,4,-68,-162,43
-275,-2601,-260,-253,-167,-61,-21,-44,-170,-167
-334,-1989,-279,-215,-171,-180,-131,-76,-142,-227
236,-1243,-106,14,-9,-140,-56,-11,-106,-209
-385,-749,16,241,162,79,195,161,-27,-315
-763,61,-13,242,146,172,313,205,-27,-406
-438,1130,-61,190,174,178,231,106,-102,-410
-264,1855,-39,197,238,262,182,17,-208,-223
-309,2195,78,170,180,246,133,-59,-262,-41
-325,2219,136,80,72,145,121,-31,-151,148
-391,1809,-71,-86,-22,96,196,97,-9,315
-412,1298,-240,-231,-84,98,237,144,111,234
-554,880,-204,-194,-23,146,164,136,137,-168
-305,544,-59,-148,-28,119,12,-31,-112,-472
485,465,-31,-175,-116,-102,-215,-250,-246,-116
907,439,45,-81,-31,-169,-326,-266,-125,359
1064,531,64,-21,48,-189,-343,-118,176,729
997,712,74,-3,68,-298,-353,-86,312,1120
601,976,174,100,145,-158,-114,75,327,1044
275,1444,224,205,252,165,231,336,295,370
134,2152,125,157,205,194,226,230,107,-234
-423,2901,48,98,92,78,68,81,75,-345
-580,3672,34,99,3,24,44,82,95,-267
47,4333,12,71,-129,-88,3,86,63,-192
365,4357,-92,-32,-183,-151,-8,94,82,-197
130,3884,-212,-73,-97,-125,86,107,91,-241
-229,3201,-162,-79,-34,-141,109,138,158,-262
-589,2194,-89,-30,78,-91,18,65,192,-264
-568,1175,-84,-70,67,-24,-3,3,204,-67
-339,320,-219,-188,-91,18,18,-17,229,370
-201,-393,-333,-279,-292,-45,-74,-123,83,565
664,-743,-272,-267,-458,-260,-289,-360,-265,464
1333,-1147,28,-14,-325,-236,-256,-333,-324,531
668,-1868,387,395,117,186,118,-26,-138,142
-434,-2251,553,622,383,394,313,100,-178,-618
-844,-1699,363,418,218,145,99,-32,-281,-953
-265,-908,187,145,29,-80,-66,-79,-181,-652
83,-317,137,-55,-62,-186,-146,-133,-93,-291
57,397,72,-168,-120,-202,-211,-154,-55,-187
-96,999,17,-186,-152,-177,-177,1,225,171
56,1439,20,-128,-135,-129,-87,183,540,615
214,1450,140,76,24,19,73,332,557,605
-109,1197,126,142,95,82,148,305,213,-100
14,924,-55,-51,-96,-34,57,111,-155,-699
-210,90,-54,-35,-35,109,183,149,-166,-811
-727,-853,-95,-37,29,263,324,239,-99,-820
-542,-1421,-179,-150,-1,291,341,224,-43,-529
-136,-1767,-283,-252,-81,255,255,111,-37,-40
-186,-2191,-271,-239,-48,300,245,25,-94,13
-131,-2362,-142,-147,16,379,268,-25,-136,-32
134,-2124,-204,-234,-112,239,160,-96,-113,219
193,-1793,-357,-357,-238,0,-41,-177,-64,397
389,-1161,-227,-293,-210,-160,-250,-316,-229,312
696,-552,-9,-51,23,-126,-292,-357,-350,178
879,-92,114,74,72,-153,-247,-263,-240,85
192,213,234,282,184,-129,-205,-95,47,-23
-681,351,305,427,359,41,-16,250,499,116
-1190,307,343,432,404,138,133,453,723,279
-877,182,421,412,328,87,78,318,482,144
444,502,214,35,-67,-340,-368,-237,-161,-258
1092,259,-97,-324,-399,-619,-652,-554,-484,-215
860,-690,-204,-370,-410,-513,-499,-406,-332,81
368,-1604,-106,-225,-283,-302,-225,-135,-79,109
-92,-2283,39,-14,-106,-122,-21,41,79,-97
-99,-2622,78,115,-3,4,143,186,157,-202
122,-2628,74,205,51,86,240,217,109,-118
205,-2377,-9,245,135,200,277,117,-18,-10
156,-2078,-192,130,155,328,322,85,-72,152
97,-1533,-188,-7,77,306,289,84,-84,383
-219,-843,-12,66,184,300,206,27,-126,395
-497,-58,-34,16,168,236,102,-53,-91,271
-557,874,-94,-114,20,99,-14,-70,-82,-64
-108,2047,-134,-165,-91,-60,-184,-189,-156,-405
436,2994,-100,-157,-120,-138,-246,-200,-43,-277
382,3253,-45,-88,-53,-127,-216,-131,62,-14
18,3120,4,65,30,-114,-210,-104,36,-48
-33,2820,-28,95,-43,-192,-281,-176,-61,-190
52,2167,-112,19,-114,-318,-358,-179,30,-12
-81,1316,-115,0,-38,-336,-316,-88,174,358
-154,534,-176,-35,-32,-327,-299,-55,223,617
-122,-224,-132,-12,2,-246,-255,-20,184,463
-70,-956,187,162,191,21,-6,100,98,-201
430,-1333,377,210,191,274,335,263,103,-538
342,-1479,437,155,45,289,363,279,110,-442
-426,-1441,308,100,-87,162,185,190,87,-262
-697,-1115,127,0,-215,82,169,122,45,-138
-146,-563,17,-64,-219,25,184,-29,-152,-215
395,45,-64,-131,-239,-98,46,-136,-266,5
455,589,-87,-140,-196,-92,1,-151,-286,330
485,1136,-119,-145,-89,154,168,-127,-300,465
525,1425,-126,-114,84,575,472,9,-225,475
-474,1087,-121,-90,122,766,617,100,-223,28
-1119,551,-70,-6,132,697,546,96,-287,-415
-411,26,-34,41,114,495,461,106,-244,-472
-51,-705,-95,21,46,182,239,-84,-403,-898
-221,-1555,-121,-25,70,107,148,-153,-431,-1004
-438,-2231,-197,-136,6,-32,20,-74,-182,-719
-291,-2734,-223,-222,-97,-227,-100,58,106,-330
-63,-3092,-130,-162,-25,-247,-151,103,193,-114
53,-3072,-35,-118,-22,-295,-256,173,421,148
128,-2765,61,-55,-69,-423,-396,178,554,417
160,-2280,158,68,-97,-529,-520,36,451,538
248,-1542,211,155,-51,-484,-542,-101,223,496
845,-685,269,214,1,-390,-483,-166,92,555
1083,-22,362,286,98,-207,-286,-123,140,683
579,557,380,324,162,-16,-34,17,218,546
-66,1169,220,249,103,33,53,53,202,194
-506,1434,73,103,23,30,79,86,124,-183
-72,1627,-47,-80,-147,-85,30,93,45,-235
181,1545,-134,-162,-225,-196,-49,14,-56,-152
-26,993,-117,-135,-155,-168,-60,-34,-178,-86
-81,343,-67,-119,-105,-103,-59,-105,-234,-122
-54,-229,-53,-148,-174,-162,-121,-186,-149,-118
141,-743,-99,-129,-230,-196,-64,-127,106,121
388,-1198,-141,-40,-141,-80,100,93,307,465
17,-1580,-16,69,26,107,220,265,337,598
-670,-1751,60,203,196,246,245,336,284,311
-341,-1333,-47,27,39,125,116,223,181,149
90,-548,-207,-177,-72,-35,-69,-27,21,107
-189,-54,-139,-42,134,61,1,-18,99,99
-443,244,120,249,322,203,143,90,207,103
-350,699,498,649,488,367,272,137,120,-104
24,1513,520,595,401,311,167,-40,-145,-694
599,2255,185,163,58,44,-93,-277,-301,-757
472,2107,-44,-153,-130,-29,-90,-205,-137,-192
178,1612,-74,-210,-118,-40,-64,-153,-140,-52
207,948,-2,-169,-166,-52,-66,-196,-310,-264
9,-209,-59,-212,-146,-13,-15,-179,-355,-407
-30,-1435,-53,-225,-25,53,76,-62,-208,-358
245,-2349,-40,-281,-90,6,78,67,15,-168
380,-3017,-181,-374,-247,-144,-50,60,62,49
-284,-3711,-301,-410,-294,-171,-76,44,55,182
-432,-4124,-278,-310,-203,-111,-70,-19,15,328
-120,-4041,-166,-138,-83,-42,-73,-113,-94,426
-207,-3754,-23,21,8,21,18,-76,-114,348
1,-3006,22,53,-8,6,60,-50,-169,169
-167,-2239,84,68,-2,-4,34,-82,-212,-226
-434,-1560,259,200,188,95,-16,-206,-313,-781
-52,-665,200,266,378,287,94,-118,-180,-700
-77,154,-129,124,324,386,157,-47,-131,-514
-314,631,-313,-51,194,352,147,-24,-160,-354
-514,579,-299,-85,146,328,219,130,-81,-236
-503,513,-230,-93,51,152,138,127,-55,-238
-52,255,-158,-47,50,-47,9,91,-3,-206
249,-460,-33,56,146,-75,-4,188,199,-56
536,-961,-91,-63,19,-142,-27,246,431,384
708,-1287,-160,-186,-113,-227,-103,220,454,612
348,-1650,-161,-137,-101,-250,-212,68,241,508
167,-2012,-77,-99,-157,-231,-182,38,202,517
355,-2065,100,-49,-218,-176,-92,29,215,551
491,-1941,371,155,-97,-25,8,-1,85,541
283,-1719,453,228,2,158,200,123,78,605
-272,-1262,252,137,35,254,323,228,189,371
-483,-575,115,76,59,296,249,100,83,-220
-231,104,154,126,137,385,193,-79,-203,-556
-100,766,146,136,156,366,154,-129,-282,-433
-138,1289,73,102,159,268,153,-49,-215,-213
-191,1442,-84,-7,84,109,113,-106,-427,-481
-597,1074,-237,-105,22,40,132,-112,-548,-761
-996,598,-302,-160,-34,2,135,-40,-498,-632
-680,48,-322,-173,-87,-85,-22,-155,-557,-284
-275,-782,-119,9,34,-76,-88,-227,-503,-8
-149,-1620,39,120,68,-139,-163,-186,-123,173
433,-2143,29,90,-76,-344,-321,-171,321,531
910,-2487,117,161,-32,-311,-333,-135,474,800
1030,-2705,215,241,96,-160,-195,57,569,846
812,-2524,112,114,29,-207,-209,178,583,641
-36,-2168,54,-6,-85,-318,-290,211,585,359
-310,-1661,26,-62,-131,-301,-210,290,591,237
-223,-1025,48,-37,-85,-165,-58,219,371,91
248,-123,149,36,-75,-131,-31,21,84,141
726,1028,202,88,-97,-149,-67,-76,-43,206
263,1934,203,142,-20,-2,87,52,23,-121
-499,2534,152,139,61,167,284,207,43,-767
-667,2753,68,70,60,189,301,229,39,-925
-329,2757,-22,54,140,252,241,79,7,-727
211,2606,-141,-16,136,212,131,-97,-92,-287
358,2063,-81,-90,45,42,-33,-192,-162,83
86,1323,-54,-77,-7,-109,-140,-131,-40,292
-195,565,-63,-29,9,-164,-232,-102,-32,269
-436,-127,-11,35,43,-79,-186,-51,-32,116
-376,-600,95,70,49,6,-102,23,-38,-143
-86,-735,128,35,41,22,-65,13,-74,-299
201,-582,74,-44,-64,-75,-97,-69,-131,-211
278,-374,14,-111,-164,-171,-149,-125,-134,21
140,-55,38,-33,-126,-145,-155,-137,-134,265
75,521,-7,36,-101,-105,-121,-178,-236,293
-19,1084,-43,15,-73,-33,-56,-168,-331,321
-190,1624,92,112,60,152,65,-55,-360,205
-36,2389,154,102,66,143,39,-128,-431,-232
284,2965,70,14,-4,2,-116,-363,-562,-424
167,2909,-61,-85,-91,-88,-188,-368,-408,-303
311,2685,-132,-187,-187,-129,-138,-116,40,-80
843,2104,-20,-84,-34,-31,-43,44,295,61
219,999,-43,90,270,153,87,149,386,-22
-928,-125,-146,123,420,276,212,329,466,-194
-881,-646,-207,-46,200,162,169,342,433,-142
-112,-813,-242,-122,-51,-13,67,193,233,20
356,-933,-246,-54,-133,-36,96,120,140,239
286,-819,-263,-16,-203,-18,177,121,177,403
109,-462,-270,-83,-325,-114,78,87,192,579
255,113,-197,-206,-448,-255,-76,10,166,678
304,747,-125,-210,-389,-228,-99,-1,172,637
179,1208,9,-37,-144,0,46,103,265,688
-476,1573,241,155,118,225,171,132,180,264
-616,2322,210,169,167,233,80,-45,-91,-447
-294,3017,199,152,214,289,85,-74,-160,-646
-369,3090,245,164,257,350,177,0,-92,-472
-148,2950,122,37,129,178,83,-62,-129,-313
31,2567,-13,-100,9,28,3,-74,-148,-149
-2,1671,-22,-128,19,13,25,-14,-113,-39
668,992,35,-115,15,-29,-63,-164,-239,-19
713,264,124,-18,72,55,-27,-204,-263,-28
6,-695,65,47,161,250,196,7,-159,-188
-507,-1458,117,165,311,417,393,171,-100,-153
-531,-1734,41,124,264,403,386,116,-226,-142
-334,-1567,-42,1,86,252,242,3,-213,-121
-220,-1369,-65,-62,-12,105,156,21,10,32
-284,-978,-81,-94,-81,-48,51,24,77,79
-211,-301,-158,-186,-225,-255,-116,-49,145,231
95,508,-239,-281,-379,-474,-330,-182,142,512
454,1436,-171,-267,-377,-568,-447,-208,108,664
467,2051,-95,-129,-210,-440,-376,-67,120,515
394,2233,-7,27,-34,-213,-221,98,194,509
416,2136,108,169,122,-22,-99,135,213,461
452,1894,93,147,128,7,-94,99,278,440
255,1312,-52,-15,0,-17,-108,28,209,289
-457,296,-196,-138,-117,-4,-92,-62,-112,-349
-527,-626,-271,-158,-151,-23,-90,-67,-235,-575
5,-1328,-120,-15,-97,-65,-99,-32,-197,-168
99,-2053,59,126,-29,-85,-62,62,-51,232
-204,-2771,115,158,-22,-122,-34,117,77,273
-665,-3135,160,201,105,-34,35,76,8,-151
-1016,-3071,170,194,211,56,101,-7,-123,-488
-345,-2593,65,40,88,-70,-47,-161,-189,-316
857,-1859,107,13,91,-77,-78,-134,-40,208
924,-1268,183,140,251,50,39,12,23,300
293,-820,89,251,426,230,156,110,-34,-163
-563,-319,57,286,437,300,183,210,63,-565
-737,511,77,195,209,115,18,150,124,-542
-139,1320,14,18,-45,-116,-189,-32,-19,-185
354,1476,-63,-82,-164,-226,-260,-76,28,423
473,1226,-90,-143,-273,-224,-278,-113,57,605
101,-109,95,118,-53,-6,-97,-75,-71,-248
-146,-614,122,120,-50,-51,-122,-78,-36,-338
-141,-1093,-15,-3,-8,15,-33,-57,1,-235
133,-1469,-75,-103,10,94,74,20,51,-35
173,-1816,18,-22,-19,117,212,109,131,139
-67,-1808,-43,7,-151,-16,177,41,29,176
173,-1461,-128,-98,-312,-241,3,-156,-171,298
472,-1019,-112,-217,-433,-281,-19,-161,-204,484
132,-661,-10,-209,-313,-146,25,-84,-256,373
-308,-311,104,1,38,63,55,-147,-450,-160
-391,267,91,105,255,184,90,-116,-418,-431
-544,922,-41,66,285,218,88,-12,-222,-508
-241,1501,0,-14,195,220,65,2,-162,-352
-53,1557,101,-9,128,229,94,72,17,-44
-25,1254,128,11,98,249,176,294,282,107
56,802,40,-33,69,232,189,409,264,132
389,182,-17,-88,-24,160,97,183,50,97
328,-633,-12,-54,-61,155,155,132,209,128
47,-1362,-102,-29,-61,215,277,224,520,227
-83,-1789,-76,8,40,352,356,185,436,112
-448,-2066,-19,5,79,281,257,2,66,-397
-552,-2134,-49,-40,12,52,92,-108,-66,-685
-100,-1865,-113,-76,-36,-112,3,-127,-85,-440
243,-1488,-147,-146,-47,-176,-44,-139,-118,-181
240,-950,-174,-176,-21,-176,-71,-153,-129,-66
242,-528,-131,-165,-61,-177,-97,-109,-118,74
429,-595,-28,-125,-114,-249,-190,-41,27,304
632,-27,75,-47,-122,-306,-336,-65,110,381
428,778,98,-46,-135,-355,-417,-100,178,151
125,1295,-2,-118,-144,-325,-354,-15,244,-45
94,1510,-29,-168,-145,-280,-327,-62,105,21
0,1412,-18,-166,-146,-276,-312,-166,-53,207
252,977,14,-55,-64,-194,-173,-105,-32,462
505,411,-49,42,-28,-115,-39,3,50,692
173,-142,-10,267,25,-44,24,67,93,635
-236,-651,110,447,86,49,105,143,186,347
-341,-1014,129,391,60,52,149,199,199,-32
116,-1073,43,217,27,-14,75,113,116,-12
319,-868,113,177,96,24,25,-29,-23,30
43,-389,-42,-52,-36,-53,-14,-120,-74,88
-43,250,-320,-258,-172,-89,17,-50,35,330
-13,1060,-159,-128,-69,28,59,-45,-20,320
209,1906,-37,-10,0,45,14,-113,-188,169
398,2677,19,-24,-13,0,-46,-63,-180,140
198,3472,96,-61,4,29,-14,76,-73,-40
-409,4180,59,-91,21,121,75,136,-167,-416
-1201,4393,-15,-45,108,348,226,144,-239,-752
-1361,4300,-66,-20,196,516,352,163,-170,-786
-565,4175,-57,-25,211,564,329,65,-173,-685
161,3530,42,52,247,571,309,30,-139,-530
441,2587,131,132,281,430,230,23,-10,-253
507,1797,45,27,105,-44,-19,-17,119,114
136,977,-90,-92,-10,-306,-181,-89,129,302
86,110,-110,-133,-10,-322,-250,-71,243,546
14,-591,-13,-47,33,-286,-249,1,223,530
-249,-927,85,63,60,-209,-210,33,119,146
-256,-985,98,99,36,-182,-193,32,109,-108
-463,-992,223,186,121,-80,-70,107,248,-126
-300,-661,275,258,171,-4,21,143,266,1
245,-72,91,198,71,-29,21,107,143,183
575,782,-118,-1,-169,-161,-87,-56,-84,122
356,1556,-167,-115,-205,-212,-135,-175,-241,-27
7,1950,-238,-83,-98,-123,-45,-168,-256,3
-347,1948,-228,17,12,23,38,-140,-282,-92
-411,1702,-111,159,172,165,89,-194,-457,-332
128,1394,-47,153,185,179,116,-240,-660,-311
226,672,76,89,156,158,150,-134,-601,-79
-146,-62,-25,-52,32,80,128,-38,-403,109
-103,-472,-192,-116,-15,0,37,-113,-348,189
166,-681,-145,-86,-43,-72,-56,0,153,164
177,-804,28,-103,-129,-112,-56,361,984,42
127,-744,118,-107,-107,-51,55,460,1065,-176
207,-393,122,-59,-35,35,155,384,616,-188
207,223,181,22,-41,2,64,186,198,-80
134,1060,145,49,-106,-111,-69,36,27,-34
18,1809,92,39,-180,-164,-95,-13,-21,-86
-39,2516,107,66,-93,-63,-14,7,0,-204
-137,3320,46,66,46,32,36,41,37,-247
-262,4009,13,68,95,59,20,61,98,-76
-224,4424,98,148,71,60,18,119,197,49
-48,4435,93,131,-34,7,-47,75,179,86
44,4283,60,-24,-214,-72,-94,11,105,209
36,4015,19,-220,-362,-194,-158,-68,-23,218
162,3273,-36,-320,-364,-221,-193,-154,-131,94
173,2335,-133,-301,-263,-100,-125,-182,-194,19
59,1386,-172,-275,-229,-28,0,-132,-168,136
197,523,-161,-179,-127,48,56,-137,-158,290
534,-150,-92,-36,-9,123,75,-143,-107,646
555,-570,-40,36,77,197,169,-89,-53,870
211,-896,-102,11,103,233,284,7,-65,654
-284,-942,-168,-74,66,187,287,85,-75,197
-253,-574,-100,-39,127,191,260,115,-133,-348
-331,-59,-36,19,159,188,126,-20,-331,-728
-1074,227,-11,56,169,164,23,-126,-444,-883
-1051,715,-15,24,61,-4,-162,-237,-482,-977
-370,1151,22,11,23,-74,-216,-217,-460,-1061
423,1077,160,136,186,78,-43,-18,-314,-732
468,496,173,202,281,189,97,181,-15,-180
94,-133,88,115,210,69,8,212,270,156
81,-814,52,57,175,-31,-84,121,200,150
181,-1612,63,52,146,-65,-91,23,2,83
147,-2399,82,39,60,-146,-133,-42,60,85
121,-3119,-29,-57,-86,-237,-182,23,449,244
144,-3707,-140,-83,-140,-252,-178,76,631,332
103,-4118,-16,4,-59,-168,-56,136,545,187
5,-4176,98,38,-44,-105,46,156,336,155
-77,-3948,101,41,-42,-120,35,33,63,204
37,-3496,101,43,-41,-147,6,-28,-77,309
49,-2912,56,-1,-89,-157,-36,-49,-111,332
-105,-2344,-53,-75,-119,-143,-74,-55,0,130
-151,-1634,-83,-44,-50,-121,-91,-10,90,-144
-295,-931,-7,62,60,-51,5,115,50,-407
-289,-367,37,78,133,26,59,145,-61,-509
116,-119,-31,-48,56,6,-27,-2,-230,-444
327,-225,-66,-89,-35,-44,-75,-149,-293,-200
148,-754,-10,25,-14,23,45,-147,-278,-40
-5,-1445,69,158,44,41,48,-170,-306,-122
-17,-1972,148,162,-4,-63,-109,-194,-201,-91
119,-2400,155,41,-139,-187,-169,-123,-1,48
408,-2824,18,-35,-171,-192,-92,-81,31,149
611,-3152,-55,-3,-46,-77,-25,-119,-68,161
723,-2911,15,43,61,27,24,-137,-138,215
416,-2312,-12,-25,82,35,-19,-110,-49,206
-408,-1958,-97,-56,151,183,85,128,190,-32
-944,-1502,-76,39,285,417,333,434,409,-224
-284,-579,-90,-2,243,400,326,310,250,0
358,369,-141,-102,153,348,238,154,131,237
56,1150,-126,-125,78,361,259,200,187,247
-183,1823,27,-81,-14,170,143,142,147,176
-338,2204,119,-17,-14,8,17,42,38,-28
-624,2143,57,-65,-89,-119,-57,-64,-66,-320
-392,1964,-37,-143,-167,-220,-165,-166,-154,-275
46,1468,-59,-117,-158,-197,-137,-111,-89,25
783,920,78,19,-60,-145,-90,-56,-28,269
530,157,146,85,12,-32,1,5,28,337
-499,-804,61,77,32,8,51,70,122,286
-277,-1393,36,95,43,-16,-45,-25,27,239
310,-1808,71,148,108,128,6,-86,-111,10
192,-2144,106,190,188,271,139,-15,-127,-178
-306,-2213,32,199,300,239,155,40,-14,-251
-493,-1978,0,190,361,195,170,132,120,-294
-429,-1448,-44,55,208,30,105,31,-32,-453
-120,-790,-201,-141,-6,-106,13,-77,-217,-532
-54,-45,-251,-237,-115,-84,6,-66,-209,-416
67,2208,-21,55,-230,-214,-281,-276,-389,252
267,1759,-140,-97,-294,-252,-271,-234,-341,420
220,1133,-180,-272,-364,-207,-155,-130,-125,539
46,641,-81,-289,-333,-153,-51,-4,95,580
-307,205,101,-59,-134,-7,100,157,209,516
-150,-20,291,193,103,132,169,54,-143,250
810,262,296,174,118,41,-15,-289,-561,51
1369,764,107,-17,-26,-90,-140,-275,-222,145
767,1081,6,-94,-60,-52,-8,138,520,220
-871,1364,-53,-94,-21,47,105,319,647,-184
-1069,2146,-71,-120,-89,-47,-10,207,439,-499
26,3151,-39,-107,-121,-126,-113,164,464,-321
374,3966,42,18,-18,-42,-47,160,511,52
253,4685,206,186,101,20,-35,15,268,189
-57,5131,224,227,97,9,-56,-34,98,186
-227,5209,142,163,42,25,-15,8,30,92
-143,4977,61,99,-7,26,23,-40,-51,46
-37,4483,-12,34,-66,-51,-47,-125,-25,3
162,3758,-78,-43,-128,-121,-119,-133,-19,-140
251,2895,-135,-173,-198,-46,-39,-55,-101,-146
234,1969,-111,-184,-175,70,90,110,-94,0
131,1116,-158,-110,-56,191,223,300,-5,80
-174,397,-258,-113,-40,191,233,319,-30,3
-524,19,-160,-85,-43,119,144,159,-115,-200
-252,62,-53,-6,22,68,29,-31,-123,-195
56,234,-28,10,84,18,-23,-149,-88,37
17,562,-65,-20,120,36,16,-114,-47,133
-200,903,-16,30,92,14,23,1,46,76
-685,1214,135,213,111,-12,-8,82,159,-133
-835,1799,189,261,103,-34,-69,72,185,-192
-473,2463,169,235,55,-44,-125,-40,70,-121
347,2939,171,118,-55,-121,-184,-181,-157,-207
910,2915,132,-16,-161,-203,-181,-223,-259,-120
588,2312,128,27,-91,-100,-33,-106,-205,-10
154,1398,60,47,39,103,87,-39,-192,-11
83,497,-107,-104,-39,154,141,86,-60,154
168,-206,-200,-179,-71,143,156,64,-58,287
82,-757,-126,-74,21,157,145,-41,-148,206
-76,-1285,-87,4,93,172,103,-72,-219,33
66,-1542,-93,11,54,53,-3,-43,-126,48
3,-1471,-131,-79,-38,-56,-123,-2,106,91
-177,-1272,-200,-169,-113,-130,-191,-30,73,-84
48,-832,-295,-196,-123,-180,-205,-38,34,7
226,-278,-269,-165,-49,-141,-224,-97,40,260
241,297,-125,-81,29,-63,-221,-138,14,301
129,745,-122,-52,47,-6,-172,-134,26,285
60,579,-177,-65,-9,-59,-162,-138,-26,319
-64,788,114,132,34,-56,-84,-81,-84,280
-75,1277,446,328,125,-46,-55,-115,-208,257
203,1056,464,223,50,-107,-59,-180,-265,366
-40,448,322,83,-8,-23,35,-62,-127,162
-686,-255,167,-19,-9,70,137,158,42,-580
-559,-1007,40,-125,-66,18,75,95,-5,-697
-376,-1650,15,-142,-95,-46,10,57,52,-310
-150,-2137,45,-99,-91,-84,-52,82,149,-85
152,-2839,107,16,83,-7,-23,110,238,36
453,-2989,97,93,247,58,17,98,212,-65
971,-2624,61,102,299,97,42,89,224,-103
618,-2485,-57,45,245,72,45,87,160,29
-247,-2025,-221,-90,53,-14,-49,-48,-64,82
-211,-1354,-269,-207,-114,70,-22,-110,-207,36
228,-611,-249,-291,-241,162,60,-112,-277,-107
314,160,-144,-155,-191,236,188,-19,-284,-291
-461,678,-11,-19,-145,269,328,198,-190,-419
-878,1108,-6,-22,-82,207,320,274,-131,-296
-566,1377,-49,-42,20,95,153,112,-215,-243
-414,1171,-32,-12,79,10,-20,-68,-318,-160
-269,700,-58,-88,-16,-121,-136,-87,-107,344
22,200,-45,-124,-109,-270,-177,-56,159,800
272,-377,119,67,38,-251,-163,-81,223,768
399,-1133,266,230,235,-128,-99,59,396,610
19,-1872,321,329,344,15,59,216,594,212
-156,-2245,206,240,220,62,176,275,661,-176
6,-2205,114,152,122,86,189,156,463,-369
-146,-1963,43,122,77,94,123,-30,75,-488
-151,-1567,-12,19,-32,64,63,-142,-180,-445
-43,-1013,-34,-25,-90,62,49,-168,-264,-362
-139,-617,-83,26,-58,73,87,-87,-187,-281
-232,-213,-103,57,-74,-31,66,69,72,-41
-211,487,0,172,-32,-98,-3,132,227,104
-86,1228,93,255,61,-16,-5,100,134,188
290,1607,95,151,48,-28,-29,33,-20,172
404,1606,2,-41,-40,-105,-66,-45,-161,97
349,1309,-75,-123,-75,-146,-42,6,-15,288
219,650,9,-66,-75,-156,-35,76,164,532
-33,-138,45,-42,-77,-190,-156,-74,37,302
200,-705,19,-124,-135,-217,-236,-246,-156,161
252,-1309,108,-179,-153,-163,-197,-230,-200,183
-4,-1792,159,-114,-65,-56,-77,-85,-150,-54
54,-1955,81,-79,-17,25,3,18,-94,-183
-22,-1872,-65,-90,33,130,67,38,-138,-267
-116,-1681,-185,-82,110,303,192,30,-202,-445
-194,-1306,-158,-52,163,425,278,-5,-165,-537
-156,-561,-129,-90,70,303,166,-124,-133,-404
-216,465,-47,-6,93,233,107,-137,-90,-349
-443,1514,-48,31,138,224,67,-166,-170,-361
-157,2267,-113,-45,30,60,-22,-64,-111,-158
448,2862,-154,-148,-130,-158,-116,30,6,108
690,2905,-123,-152,-176,-269,-170,53,95,279
589,2612,-101,-133,-165,-326,-235,23,279,269
374,2159,-59,-99,-151,-339,-286,15,420,260
-262,1158,-17,14,-58,-228,-172,122,406,187
-907,-10,4,86,46,-93,-12,201,309,85
-839,-871,126,168,150,26,83,202,161,106
-563,-1491,222,208,149,37,92,111,-22,50
250,-1758,164,86,-114,-176,-62,-45,-80,120
1085,-1821,81,1,-305,-312,-120,-29,69,393
1091,-2098,124,76,-175,-136,44,137,277,593
191,-2461,79,69,-15,161,280,279,288,303
-262,-2279,-94,-50,-62,197,318,252,172,-1
-308,-1786,-68,-12,-20,131,154,10,-110,-297
-496,-1172,-4,38,56,78,28,-194,-379,-717
-403,-405,67,101,164,90,-15,-269,-461,-840
-202,322,12,24,234,201,47,-193,-319,-688
-107,839,-47,-5,287,266,81,-116,-259,-479
32,1157,53,89,282,229,-26,-184,-413,-320
-54,1163,10,117,238,247,-41,-170,-424,-76
-149,853,-66,83,180,191,-100,-185,-336,154
130,352,-69,-16,7,31,-192,-239,-246,328
515,-106,-16,-85,-97,-60,-112,-127,40,412
799,-507,43,-49,-45,-53,22,54,297,356
434,-1085,129,60,70,-11,108,184,307,256
-227,-1347,275,109,57,-96,12,163,118,87
-135,-1177,298,95,-29,-170,-70,90,-26,200
4,-931,124,-15,-120,-213,-88,104,33,322
-242,-645,-95,-121,-150,-239,-47,201,303,12
-420,-191,-159,-72,-81,-186,-2,237,460,-311
-134,378,-205,-80,-140,-201,-115,132,501,-220
51,1004,-293,-192,-235,-160,-160,15,464,133
40,1600,-333,-247,-196,104,25,24,312,296
-104,1839,-335,-227,-118,369,222,56,66,19
-304,1685,-303,-83,-7,480,229,-33,-193,-301
-371,1248,-154,39,66,493,232,-38,-276,-592
-270,579,-38,8,59,404,207,-50,-374,-770
-175,-454,42,-54,46,177,93,-38,-296,-584
47,-1509,43,-105,20,-68,-59,-18,-73,-172
272,-2504,102,-40,53,-151,-66,52,98,73
163,-3574,175,95,158,-57,41,157,198,154
104,-4430,176,147,161,-104,17,118,213,339
153,-4937,39,82,41,-219,-65,54,199,446
359,-4944,36,3,-61,-294,-171,-35,92,448
544,-4602,62,-14,-117,-318,-258,-162,-69,317
408,-4052,29,-29,-150,-336,-264,-171,-104,153
117,-3591,58,8,-117,-292,-242,-211,-175,90
55,-3034,94,57,-61,-159,-179,-314,-356,101
167,-2038,-39,-79,-176,-166,-213,-435,-538,206
286,-1113,-144,-195,-258,-129,-192,-369,-451,356
-364,-820,-58,-59,-34,245,134,-21,-218,-31
-926,-909,12,19,105,454,335,222,-210,-489
-508,-950,154,99,133,303,251,357,8,-399
120,-1012,193,113,143,91,37,369,421,-325
977,-1151,191,125,163,34,-37,209,427,-366
957,-1489,203,218,244,20,-77,10,125,-340
-353,-2042,-13,148,213,-40,-182,-201,-180,-468
-647,-2512,-128,58,133,6,-90,-107,-62,-375
-29,-2577,-109,41,143,72,20,31,172,-139
107,-2301,-87,25,95,21,33,30,230,-29
-227,-1789,-52,0,-41,-119,-28,-46,190,-75
-407,-1266,52,107,-1,-109,-5,52,196,-1
-323,-504,93,179,88,-44,78,146,189,85
-158,465,42,128,19,-69,86,118,125,-22
-201,1368,78,168,-70,-102,22,33,29,-124
-224,2193,145,310,-33,-68,-18,-27,-20,-209
146,2887,118,331,-73,-48,17,15,48,-7
239,3195,50,161,-164,-90,0,-18,62,242
254,3120,96,-101,-261,-139,-84,-170,-21,489
97,2828,65,-218,-327,-133,-165,-303,-171,638
-143,2091,-18,-230,-226,-69,-121,-223,-250,429
-365,1078,-99,-256,-95,-1,-27,-120,-385,-199
-338,226,-12,-197,-4,40,24,1,-308,-416
-87,-435,69,-106,77,66,87,188,-44,-368
-35,-1038,133,-25,149,142,184,286,80,-284
370,-1332,95,-58,79,129,115,165,3,-125
815,-1152,-70,-174,-79,19,-65,-80,-165,136
550,-850,-220,-243,-178,-70,-135,-185,-210,281
62,-403,-203,-202,-163,-106,-131,-148,-182,96
-123,306,-194,-146,-156,-177,-127,-71,-45,-72
7,1049,-131,-89,-160,-264,-174,-40,171,36
401,1874,-56,-18,-89,-237,-169,-18,171,274
401,2647,-52,19,-5,-149,-99,77,221,360
-35,3119,-89,130,113,-44,-31,164,330,190
-187,3253,-40,207,209,61,51,158,297,-17
14,3170,109,242,257,168,103,147,176,-242
-16,2766,93,128,184,157,105,123,101,-436
-354,1972,-21,11,92,127,125,156,130,-329
-534,1088,-33,0,-11,84,86,164,168,-42
-536,296,49,33,-39,38,26,78,99,-15
-154,-340,111,28,-113,-18,14,8,-31,-106
241,-917,84,-73,-201,-59,26,-21,-72,-111
245,-1410,-24,-150,-167,14,67,-54,-149,-177
117,-1625,-67,-175,-116,185,260,-34,-276,-254
-239,-1647,-193,-204,-140,263,365,-66,-373,-116
-433,-1295,-262,-172,-149,181,227,-172,-434,133
-438,-825,-197,-70,-41,184,142,-166,-407,286
-569,-461,-92,47,113,259,173,-33,-289,238
-660,4,80,208,269,332,228,93,-149,12
-365,646,156,258,319,290,174,143,2,-322
403,1292,75,118,206,141,50,-11,-162,-481
733,1413,23,22,101,-27,-101,-178,-332,-407
702,1110,-26,-27,6,-214,-278,-186,-57,-104
540,526,16,-81,-96,-317,-342,-56,386,251
-17,-377,56,-50,-64,-268,-244,25,429,286
-301,-1277,70,49,48,-103,-94,80,305,208
-227,-1954,44,65,77,-9,-66,26,245,274
-180,-2396,-55,-16,-3,-4,-58,-9,223,412
-131,-2688,-129,-94,-67,4,-6,-51,119,496
-92,-2819,-114,-26,8,38,48,-154,-145,441
327,-2628,-41,24,42,12,54,-191,-284,253
844,-2144,54,26,11,-64,-13,-227,-358,-15
764,-1668,-4,-1,51,14,61,-41,-160,-193
43,-1240,-206,-79,42,49,76,112,4,-461
-617,-584,-354,-244,-96,-67,-40,111,96,-644
-423,194,-193,-228,-121,-90,-67,137,167,-290
80,866,-15,-113,-43,-62,-98,27,-37,128
200,1230,-15,-21,30,25,-105,-63,-210,317
81,1189,-74,63,65,126,-71,-59,-205,278
-152,799,-5,174,134,202,49,88,-14,-32
-402,53,81,180,168,188,131,263,240,-498
-330,-654,164,117,118,54,60,285,337,-556
-159,-1124,111,71,29,-73,-21,152,287,-184
139,-1450,85,27,-99,-226,-151,28,229,189
547,-1696,136,-8,-175,-326,-220,-44,167,353
743,-1916,80,-38,-192,-366,-210,-77,115,420
692,-1735,43,-28,-179,-418,-288,-138,114,651
391,-1304,7,117,-26,-356,-312,-161,173,777
-335,-969,33,305,247,-137,-190,-63,213,597
-852,-373,51,378,443,-1,-128,4,214,405
-610,388,141,438,543,106,-57,87,155,113
-112,1379,105,322,373,185,-5,86,-20,-301
144,2422,-115,-8,64,274,62,61,-170,-666
-185,3011,-167,-181,-37,442,226,185,-133,-655
-369,3083,90,-174,-154,475,333,296,-48,-391
-496,2838,183,-159,-247,427,323,233,-90,-219
-373,2433,87,-172,-246,336,326,88,-139,-135
166,1848,-100,-281,-280,161,287,-48,-161,-126
498,1114,-210,-318,-242,-29,118,-182,-158,-144
85,193,-130,-261,-174,-208,-85,-211,-191,-57
-359,-653,-18,-127,-70,-287,-152,-108,-224,185
-151,-1116,15,171,100,-319,-164,-149,-328,458
225,-1129,77,393,279,-251,-209,-308,-475,734
367,-940,75,305,225,-293,-268,-282,-416,848
309,-693,26,78,84,-307,-262,-135,-11,823
-23,-427,45,-31,139,-30,9,94,351,434
-116,85,153,35,204,247,246,173,243,-333
121,965,351,141,67,157,123,156,195,-670
155,1906,385,154,-116,-42,-74,68,152,-541
-32,2566,246,20,-280,-103,-111,19,153,-269
-164,3072,106,-115,-294,-64,-92,56,329,-170
-25,3360,-14,-175,-230,-36,-95,34,293,-217
-42,3124,-59,-144,-151,8,-47,-12,57,-192
248,2646,-107,-83,-99,-30,-69,-104,-111,-51
513,1939,-240,-72,-87,-73,-107,-152,-114,108
356,1221,-327,-97,-91,-103,-109,-105,-79,-24
148,532,-376,-133,-75,-59,-56,-32,-61,-223
139,52,-413,-237,-127,-83,-26,10,-8,-191
208,-232,-294,-173,-103,-105,-12,39,42,65
-109,-574,-98,52,82,-2,68,119,140,345
-455,-785,106,145,143,89,147,189,208,435
-376,-690,227,176,120,159,228,231,224,450
-78,-139,239,145,52,122,211,159,108,320
143,492,277,98,15,25,99,11,-124,-168
157,1029,196,29,-10,-1,33,-123,-262,-501
185,1685,77,-101,-140,-107,-60,-201,-349,-310
368,2305,-38,-191,-215,-193,-165,-294,-478,213
540,2525,-102,-194,-188,-194,-194,-266,-423,735
453,2244,2,10,46,0,-47,-120,-294,886
178,1844,103,276,282,172,100,-14,-198,417
-322,1231,102,332,342,199,132,174,282,-58
-999,426,69,220,274,230,188,308,573,-422
-634,-153,32,73,151,243,253,320,476,-427
-443,-819,73,104,211,452,399,330,342,-173
-445,-1327,-13,101,235,692,516,267,152,-165
-157,-1457,-168,-75,74,567,396,39,-149,-389
-42,-1679,-190,-182,-61,248,126,-218,-385,-464
-16,-2681,-159,-243,-169,-35,22,-169,-257,-102
-108,-2802,-77,-175,-100,-162,-17,-27,-62,38
-240,-2119,-101,-137,0,-133,5,67,-5,-131
-214,-1631,-87,-107,36,-148,-69,11,-22,-402
143,-1071,16,-73,-32,-290,-322,-170,-6,-267
424,-39,77,-85,-171,-468,-466,-182,103,175
423,132,80,-63,-206,-467,-388,-53,155,367
140,-105,47,-50,-180,-340,-243,12,117,296
-106,-320,0,-38,-114,-239,-197,-57,20,160
-66,-1019,37,41,27,-126,-173,-115,-41,102
173,-1987,113,144,156,19,-50,-58,-22,165
395,-2685,144,197,242,173,130,51,42,202
297,-3466,164,239,305,269,263,150,127,90
-143,-3914,-18,75,124,120,146,62,7,-150
-179,-4004,-216,-157,-143,-56,-22,-96,-212,-368
-56,-4068,-209,-142,-141,3,48,-59,-191,-365
14,-3770,-140,-63,-31,47,55,-49,-50,-262
117,-3260,-172,-45,69,82,52,-41,69,14
72,-2429,-235,-115,-8,68,30,-77,1,287
-52,-1418,-155,-169,-123,-57,-66,-149,-161,323
-106,-432,-47,-104,-81,-189,-147,-183,-184,461
-157,736,-92,-85,-16,-131,-127,-136,-245,459
-360,1954,-57,-70,48,98,6,-86,-327,296
-601,2692,112,27,127,249,173,38,-210,122
-448,3057,88,13,47,185,145,14,-247,-411
90,3405,-77,-135,-188,-60,-78,-149,-322,-573
850,3304,-189,-259,-304,-217,-170,-79,-69,-111
1311,2648,-19,-104,-111,-106,-10,160,346,79
1116,2103,225,163,168,68,129,231,497,-11
573,1725,245,197,208,45,113,182,522,-131
-521,1139,214,123,138,13,99,162,468,-458
-853,514,224,162,144,34,111,233,427,-428
-346,445,224,174,100,-24,50,228,373,-136
-162,786,189,162,51,-64,31,198,286,15
-116,1086,114,139,78,49,83,129,187,-32
-120,1441,6,94,145,186,137,31,47,-178
-154,1797,-73,57,256,276,180,-62,-117,-191
-303,2111,-100,117,383,304,157,-141,-256,-225
-424,2499,-20,325,450,336,133,-180,-331,-213
-412,2774,-59,317,292,285,135,-131,-342,-34
-462,2734,-218,14,-109,29,26,-142,-324,302
-129,2388,-210,-191,-439,-294,-127,-165,-242,637
395,1762,-172,-231,-577,-420,-154,-93,-109,792
849,658,-141,-234,-544,-393,-148,-70,35,755
958,-491,-99,-285,-523,-423,-233,-74,164,508
133,-1664,-33,-219,-444,-362,-206,106,424,244
-394,-2683,117,-107,-283,-248,-111,279,558,32
-488,-3416,223,13,-87,-142,-57,211,413,-155
-458,-3783,226,86,-16,-158,-138,4,147,-287
-70,-3793,123,48,12,-104,-84,47,135,-350
293,-3585,94,-39,17,-22,-5,156,194,-357
403,-3096,147,-21,16,-23,-88,48,-34,-336
197,-2581,121,46,74,51,-24,49,-89,-262
-24,-2010,81,113,152,140,99,111,49,-202
107,-1053,0,121,159,114,41,18,-5,-182
321,-46,-98,87,85,82,-46,-166,-178,-154
359,666,-206,-19,2,91,-21,-184,-206,-53
259,968,-250,-138,-40,135,50,-79,-178,72
84,1059,-57,-129,-52,157,38,-120,-308,174
-242,792,102,-37,9,195,42,-161,-415,218
-155,188,112,-9,-6,113,67,-50,-263,398
386,-327,145,-45,-105,-47,-24,-79,-243,530
615,-794,4,-152,-142,-25,-45,-172,-302,317
280,-1311,-105,-147,8,218,157,-128,-268,-150
-162,-1664,-140,-52,182,427,291,-16,-180,-617
-776,-1935,-76,61,304,554,441,186,-99,-768
-902,-1967,57,152,330,400,396,136,-215,-726
-428,-1511,53,113,196,5,113,33,-133,-542
-186,-760,-113,-3,79,-137,-37,76,146,-326
-144,104,-176,-139,-89,-251,-172,80,313,-104
12,976,-82,-135,-203,-410,-334,83,630,191
418,1961,109,8,-145,-418,-419,85,755,348
574,2730,253,114,-49,-337,-393,109,687,387
110,2917,280,197,73,-169,-262,138,500,256
-196,2708,223,201,129,-83,-188,76,296,220
-74,2475,242,178,79,-147,-255,-55,139,220
-75,1796,141,75,-35,-188,-240,-85,63,112
110,763,-8,-64,-162,-186,-146,-35,94,385
