-62,-5703,7,-16,4,-30,48,30,25,5
-34,-5463,13,-6,15,-20,37,21,26,10
0,-4913,17,-14,22,-16,-12,5,40,33
25,-4185,24,-21,16,-14,-32,-2,44,32
36,-3396,12,-8,14,-5,-28,-8,10,30
43,-2459,-30,-9,25,0,-14,-16,7,39
20,-1573,-40,-5,30,19,-11,-16,-6,32
17,-1053,0,0,14,18,-21,-3,2,23
11,-1031,6,1,8,3,-43,-4,-19,33
-4,-1322,10,-2,11,-20,-76,-6,-21,61
-4,-1959,6,-10,7,-35,-90,-20,-1,65
-26,-2891,10,-11,17,-31,-74,-16,1,47
-39,-3724,13,-26,22,-15,-48,-4,3,20
-44,-4406,-2,-39,5,-5,15,-7,-31,2
-18,-4943,-26,-23,3,25,59,1,-7,6
13,-5291,-32,-1,6,56,59,12,39,47
12,-5266,-3,0,6,78,100,16,-4,69
-16,-4942,3,-9,13,68,143,0,-24,69
-2,-4354,21,-16,3,5,114,-10,-21,90
13,-3435,16,-13,-4,-64,59,0,-14,91
18,-2455,5,-2,8,-70,10,-1,-47,57
35,-1359,-15,-15,-2,-49,-10,-12,-43,55
66,-162,-7,-25,-17,-53,-38,-36,1,80
40,826,-9,-14,-31,-36,-47,-36,51,84
-6,1388,40,22,5,-4,-25,-38,5,58
-86,1060,15,9,16,6,11,1,25,25
-126,333,10,21,31,29,70,23,0,0
-101,-498,19,30,44,36,82,31,-9,-3
-52,-1183,15,27,34,19,73,37,16,25
-30,-1755,12,22,24,-2,55,37,19,55
-24,-2213,10,12,29,-6,51,43,20,44
-15,-2410,8,23,31,11,28,44,-2,40
-25,-2188,5,8,26,12,12,48,17,45
-14,-1730,-62,5,22,-4,-4,32,20,33
0,-1027,-85,13,7,-13,-33,11,-21,32
-3,-122,6,25,5,-12,-44,-11,-43,66
0,844,29,21,-4,-8,-40,-20,-65,80
-2,1952,26,11,-16,1,-55,-20,-79,59
-23,3091,10,-4,-19,12,-69,-25,-87,14
-42,3932,8,-2,-15,17,-64,-46,-99,-54
-8,4231,10,-5,-30,3,-79,-56,-53,-59
26,4158,26,3,-22,-12,-70,-55,-4,-40
20,3735,48,20,0,-2,-47,-37,-6,-35
21,2909,51,17,4,8,-26,-10,-11,-20
-15,2064,57,8,16,6,-10,2,27,-4
-57,1328,58,24,33,19,12,23,32,-17
-9,738,41,19,21,12,30,27,16,-24
54,337,-7,2,6,-10,38,22,16,-6
70,227,-49,-7,0,-19,32,17,24,15
39,380,-12,-1,4,-9,35,25,42,18
-17,727,-61,7,7,-2,42,19,23,1
-61,1322,-7,11,6,15,50,-3,-23,-31
-96,2013,6,23,17,40,52,-9,-29,-48
-114,2758,-67,21,16,38,28,-9,-26,-68
-110,3643,-130,1,-9,22,-21,-23,-14,-97
-80,4457,-108,-12,-23,9,-34,-42,-42,-84
-30,4830,-131,-20,-16,11,-32,-61,-99,-74
2,4662,-31,-12,3,19,-13,-59,-122,-86
15,4215,27,-4,6,18,0,-40,-138,-74
2,3362,30,4,15,14,-2,-21,-118,-53
-4,2252,43,16,17,-3,-5,3,-59,-20
16,1245,56,23,5,-10,4,35,29,17
51,379,67,23,8,-17,-19,38,64,33
59,-392,86,28,7,-44,-57,24,99,51
91,-962,78,27,5,-61,-86,22,120,70
95,-1158,1,18,0,-67,-71,19,140,89
13,-1127,-86,2,6,-45,-40,15,123,59
-68,-886,-44,-20,0,-5,4,20,67,32
-81,-337,-105,-13,13,6,30,13,6,-3
-56,269,-111,13,30,7,14,-10,-42,-34
-21,989,-57,12,19,15,-23,-13,-27,-26
22,1783,24,-10,8,4,-48,0,17,-25
50,2376,57,-19,-11,-8,-46,-11,7,-32
63,2494,35,-22,-23,-8,-40,0,26,-17
37,2225,18,-24,-32,-9,-31,18,37,-16
-50,1659,8,-33,-34,-9,-33,24,57,-43
-77,680,13,-37,-22,-12,-30,5,23,-43
-47,-382,8,-33,-9,-29,4,-5,4,-24
-19,-1295,-26,-15,-10,-3,23,-2,-16,-22
-1,-2068,26,-18,-14,22,19,22,15,19
23,-2672,57,-20,-26,12,25,42,49,63
64,-2970,65,-12,-34,-3,11,16,10,46
84,-2973,41,-23,-38,-16,-11,-20,-70,56
86,-2721,41,-19,-22,-12,-6,-35,-108,71
25,-2152,17,-27,-1,0,-6,-31,-111,18
-43,-1406,-28,-31,-26,-1,-15,-35,-64,-27
-63,-591,-24,-19,-27,3,-19,-31,-5,-64
-49,389,5,10,-6,12,-13,-11,94,-120
-22,1385,3,45,12,37,-3,28,142,-138
13,2105,-62,38,5,50,3,52,73,-129
58,2302,-37,36,1,41,22,28,17,-79
53,2171,-3,27,5,24,40,11,-9,-47
-23,1686,-35,15,-6,8,49,-5,-19,-50
-18,861,-38,24,6,7,65,12,-8,-9
9,94,9,33,24,19,79,24,20,19
-39,-620,43,40,29,25,76,40,13,0
-72,-1217,41,31,28,23,47,43,3,2
-33,-1658,37,17,15,22,15,28,2,3
0,-1736,50,5,1,-6,19,23,24,-1
0,-1509,34,3,-5,-18,23,20,15,-1
33,-1115,6,-1,-3,-13,0,10,-2,-9
65,-456,-23,1,-2,-13,-23,-1,-4,6
52,288,-83,-8,-15,-12,-36,-4,0,20
18,1127,-16,-21,-22,-15,-35,-11,-33,11
-9,2092,-40,-25,-10,-3,-34,-15,-30,-4
-38,2905,-107,-29,-11,7,-31,-15,-15,-10
-49,3290,-12,-4,-15,17,-19,-22,-13,-18
-22,3240,20,20,0,15,-10,-26,-42,-14
1,2900,15,14,14,2,8,-31,-38,-5
33,2119,47,-3,5,-3,7,-30,-38,11
71,1170,49,3,-6,-12,10,-23,-39,56
90,375,57,8,12,-16,20,-5,-10,131
85,-332,57,16,8,-24,27,-6,-7,143
60,-953,47,0,-13,-45,40,-15,-34,102
45,-1306,35,-7,-15,-54,53,-15,-48,56
57,-1267,24,-3,-5,-49,41,-20,-22,32
56,-1000,33,-13,4,-26,25,-1,47,20
32,-514,32,-11,12,0,2,10,119,16
34,212,-18,-10,17,3,0,13,122,43
35,970,-94,9,8,-3,-13,13,73,22
-14,1849,-18,8,9,4,-26,-5,22,-60
-47,2773,19,21,1,14,-28,-37,-20,-96
-45,3477,-81,19,-26,3,-33,-29,-20,-71
-5,3651,-99,5,-40,-3,-25,-28,17,-21
24,3423,1,-7,-50,-3,3,-34,3,14
17,2850,6,-27,-48,9,60,-22,-16,-13
11,1868,12,-11,-41,22,68,4,2,-13
20,821,28,1,-31,26,50,27,55,22
15,-57,-28,18,-16,16,30,27,34,23
24,-864,-59,17,-10,-9,0,11,16,23
20,-1617,-1,10,-21,-16,-19,3,-10,20
10,-2088,65,-3,-8,-14,-12,2,3,12
24,-2245,79,-3,2,0,13,4,-2,4
3,-2225,66,8,8,13,9,8,9,13
-18,-1848,43,-4,17,11,17,9,-13,47
-12,-1287,38,9,43,13,36,17,-4,48
-3,-672,38,12,39,13,20,16,1,12
-9,85,16,3,5,0,4,-12,-32,-20
-10,810,15,6,9,4,0,-33,-49,-43
-24,1170,3,1,15,11,0,-44,-73,-59
-34,1025,16,-4,5,15,-2,-40,-46,-48
-38,576,18,-14,-15,3,-8,-19,22,-12
-25,-244,1,-16,-17,3,2,5,14,4
-25,-1345,17,13,-10,7,13,15,32,9
-33,-2301,37,18,-7,5,27,18,30,26
3,-3078,36,14,-15,-6,28,26,27,43
46,-3785,33,14,-23,-7,13,27,21,47
75,-4294,27,6,-25,-12,20,22,20,63
93,-4357,37,3,-17,-22,25,5,31,70
93,-4148,-12,13,-5,-21,22,3,7,74
90,-3712,9,9,-5,-28,3,2,24,75
61,-2982,4,6,-13,-25,-24,-5,3,35
51,-2157,-59,-14,-16,-22,-21,0,25,25
59,-1211,-9,-11,-10,-25,-39,-2,19,47
54,-137,13,4,-6,-18,-80,-31,-8,52
17,790,4,-13,-11,2,-94,-43,-45,49
-83,1223,-8,-22,-3,34,-53,-40,-59,11
-165,1226,-14,-17,6,45,7,-21,-61,-61
-158,984,-8,-1,6,25,4,0,-68,-85
-102,326,4,-8,4,0,0,27,-39,-36
-42,-471,3,-1,12,-5,-1,30,-7,-2
22,-1133,1,8,18,-2,3,22,3,17
64,-1659,11,21,20,0,31,29,13,27
97,-2040,-1,11,15,-11,28,45,74,57
98,-2151,-82,-24,-7,-40,17,50,112,74
39,-1948,-52,-26,-19,-51,9,38,85,55
6,-1522,13,-12,-13,-39,-22,4,22,33
-27,-869,16,1,3,-5,-31,1,-19,-13
-90,-54,17,13,40,38,-9,3,-27,-81
-130,808,-40,11,38,55,1,10,-39,-81
-112,1814,-162,-17,8,29,-15,4,-31,-34
-92,2817,-118,9,-1,2,-42,-18,-39,-40
-27,3561,-46,24,-13,-16,-42,-21,-12,-22
58,3764,8,-7,-35,-47,-55,-16,43,31
41,3563,3,5,-13,-31,-44,-27,12,11
0,3018,-21,19,19,4,-7,-36,-6,-35
3,2121,-25,12,12,11,10,-13,9,-17
0,1230,34,16,23,12,30,18,48,16
8,457,49,11,29,2,43,29,62,55
-4,-236,47,14,16,1,41,21,37,54
-3,-767,3,27,33,15,46,24,-21,21
6,-955,-3,19,40,13,55,0,-79,3
39,-841,56,30,18,-2,45,-17,-103,13
46,-562,23,36,9,-11,31,-18,-98,4
28,-13,26,32,12,0,3,-29,-102,0
-7,637,54,32,11,10,-15,-34,-90,2
-41,1327,24,26,0,3,-9,-26,-43,19
-63,2148,-14,-9,-12,-14,-11,4,73,37
-61,2921,-22,-11,-14,-14,-9,13,120,12
-52,3335,-14,0,-20,7,-10,2,35,-34
-39,3235,-15,-2,-25,11,-11,-11,-23,-42
-16,2842,-16,-16,-44,-9,-18,-13,35,-27
6,2074,3,-9,-44,-6,-14,12,142,9
30,1040,22,-4,-18,1,-9,24,163,-2
56,92,-29,7,-10,9,-13,13,107,1
61,-729,-52,21,1,-1,-16,23,88,11
73,-1432,-27,9,3,-25,-18,30,82,25
78,-1933,12,1,-8,-46,-13,26,60,27
46,-1888,68,12,5,-29,9,19,44,24
-8,-1464,56,0,11,-13,25,24,51,22
-15,-1088,34,-5,7,-23,22,20,49,-10
15,-537,19,1,11,-13,6,3,25,-28
3,47,15,-6,15,-1,1,-9,-14,-49
-9,735,-62,-17,9,10,-6,-18,-31,-53
8,1521,-41,-8,-2,6,-17,-24,-36,-34
14,2132,16,-9,0,7,-22,-23,-19,-32
10,2243,27,22,41,42,-9,-14,-16,-38
-30,1904,26,20,38,47,-2,-18,-55,-54
-38,1295,8,-1,23,33,-9,-18,-63,-51
-7,292,21,-6,17,24,-22,-18,-61,-24
41,-838,32,-3,9,24,-16,-15,-59,-13
81,-1849,37,-3,5,5,-9,-16,-50,-17
108,-2686,29,-5,-3,-19,-21,-6,-17,-10
77,-3394,-3,-34,-23,-42,-29,-5,-9,1
29,-3825,-13,-52,-37,-68,-41,-20,-25,15
39,-3894,2,-49,-34,-74,-38,-23,-19,49
57,-3746,7,-43,-23,-64,-33,-16,19,82
49,-3312,-18,-31,-18,-48,-24,-10,19,69
-17,-2683,-15,-21,3,-16,4,0,28,23
-57,-2002,2,-2,36,8,34,0,66,-32
-51,-1137,9,11,39,16,38,-25,7,-51
-35,-261,14,8,35,19,14,-39,-60,-72
-1,352,-17,5,31,23,6,-40,-68,-81
18,448,-81,-17,16,12,-5,-30,-67,-68
-28,197,-26,-17,3,11,-29,-34,-81,-64
-102,-374,0,-18,2,-1,-43,-46,-47,-56
-59,-1286,-5,-16,10,-14,-40,-6,21,-35
6,-2162,-5,1,18,-11,-13,21,26,-23
-11,-2833,7,-4,6,1,-13,28,28,-5
-31,-3370,-47,-11,-4,4,-17,30,38,5
-57,-3779,-75,-21,-4,5,-4,39,12,4
-58,-3787,0,-34,-9,4,9,42,38,6
-33,-3446,34,-32,-9,8,7,38,44,24
-26,-2905,44,-13,10,29,23,40,30,24
-17,-2092,45,-5,16,23,15,35,20,22
-11,-1187,41,8,4,11,-10,25,19,6
-36,-230,-33,-1,7,14,-12,18,-23,-9
2,868,-51,2,28,34,7,12,-42,-19
33,1840,23,15,34,51,16,16,-34,-25
26,2376,-35,6,28,43,8,12,-35,0
35,2429,-133,1,21,47,1,16,-24,20
37,2162,-53,-1,3,23,-2,5,-20,23
-25,1478,1,-31,-46,-6,0,-19,-53,6
-76,563,-42,-38,-60,5,33,-6,-29,-5
-74,-187,-22,-18,-25,13,55,18,0,0
-65,-804,7,2,1,-10,50,17,0,-13
-66,-1331,3,26,14,-5,45,25,-1,-42
-40,-1608,34,41,26,3,63,51,51,-19
-48,-1525,-23,36,33,9,69,66,63,-13
-51,-1216,9,17,28,8,46,38,0,-35
18,-642,41,6,17,-5,18,20,18,-14
44,157,38,6,6,-1,8,19,36,-28
12,983,38,11,12,12,10,21,-5,-66
-22,1941,19,13,23,23,7,14,-20,-76
-21,2955,0,-1,17,23,-18,-2,-46,-62
1,3752,-5,-12,-4,11,-37,-11,-31,-38
32,3988,-1,-8,-20,-1,-35,-14,-21,8
41,3810,-16,-13,-14,-12,-42,-21,-29,35
27,3300,-6,0,0,-7,-29,-24,-27,-11
40,2408,19,28,12,-18,-26,-16,-27,-5
62,1454,44,55,30,-34,-38,15,-4,38
57,586,59,41,25,-56,-74,7,20,9
19,-202,32,28,4,-78,-93,11,16,16
-8,-866,34,29,0,-73,-50,17,28,31
-28,-1212,-2,21,0,-44,-13,7,27,30
-40,-1188,-97,-14,-22,1,26,4,-14,5
-46,-989,-15,-24,-13,50,70,1,-15,-8
-24,-521,-23,-32,-2,77,78,-4,-17,-13
-28,80,-114,-33,-5,71,73,1,-18,-16
-50,710,-134,-11,5,28,69,0,-5,-7
-38,1497,-143,13,1,-11,30,13,4,17
25,2243,-142,6,-19,-46,-5,24,17,85
94,2658,-57,-17,-31,-54,-32,-2,24,199
117,2531,3,-32,-32,-48,-51,-12,65,266
165,2064,8,-42,-47,-53,-62,-13,74,276
201,1187,-12,-56,-65,-59,-62,-26,7,261
199,8,-13,-52,-55,-63,-62,-30,10,237
50,-1160,-35,-11,-5,-40,-22,0,24,109
-152,-2193,-59,22,43,10,21,39,-8,-123
-204,-2928,43,35,57,35,59,63,-7,-198
-149,-3466,68,30,35,25,51,67,15,-94
-72,-3612,57,8,-2,-6,24,62,42,16
-52,-3480,75,44,3,18,42,70,60,51
-61,-3119,109,79,29,30,61,60,61,22
-31,-2434,92,64,28,14,29,24,13,12
-35,-1655,67,40,26,7,2,-4,-8,1
-52,-754,64,43,38,9,7,-22,-17,-9
-90,251,45,49,40,7,11,-40,-47,-32
-105,1167,-42,29,11,-6,-12,-45,-66,-43
-76,1663,-107,13,-12,-16,-44,-29,-60,-8
-22,1622,-19,-10,-20,-12,-21,-16,-44,35
-1,1280,7,-11,-13,-6,5,-3,-25,35
-19,564,26,18,-2,-4,14,15,-3,22
-19,-308,53,34,13,0,32,20,30,24
-23,-1027,70,35,18,-9,43,13,18,35
-50,-1652,70,24,21,-22,44,10,25,41
-39,-2110,63,23,18,-24,46,-1,9,46
-5,-2260,65,41,18,-14,43,-12,-29,78
27,-2040,46,30,7,-15,25,-26,-54,102
63,-1558,18,8,-9,-8,-28,-27,-99,75
55,-916,4,-9,-15,-6,-53,-41,-150,23
79,-101,-8,-20,-24,-7,-36,-49,-159,-14
110,758,-9,-13,-41,-26,-45,-70,-166,-34
23,1698,-2,-12,-43,-20,-42,-54,-100,-59
-38,2619,-15,-17,-38,-6,-25,-22,-1,-67
-49,3333,-13,-15,-24,8,-16,-14,57,-62
-15,3562,5,-7,-14,10,-23,23,110,-41
23,3420,16,0,3,9,-50,51,120,-6
10,3067,13,-6,15,9,-46,28,86,8
-9,2376,-73,7,5,-3,-52,12,45,15
-2,1469,-113,28,6,-10,-53,-7,7,9
5,673,-3,16,3,-11,-27,-18,14,24
27,-49,32,10,0,-13,-9,-12,-8,25
25,-658,38,16,8,-21,11,5,-2,5
21,-893,25,11,3,-21,18,25,22,6
18,-827,14,0,10,-20,6,23,-3,-5
30,-582,7,0,0,-11,17,6,-25,-2
33,-65,-8,-4,-10,-2,23,1,-48,0
49,569,-21,-19,-9,-2,12,2,-55,2
39,1219,-19,-18,-6,4,1,0,-38,-9
9,1964,-20,-6,4,5,-17,-23,-13,-23
-35,2608,-19,-10,15,19,-6,-21,76,0
-70,2862,-24,-13,38,32,7,9,144,9
-64,2631,-10,13,43,37,7,15,106,-4
-53,2082,4,34,21,37,9,3,51,-10
-61,1098,-12,11,5,25,18,5,67,-7
-43,-131,-6,-1,4,18,15,5,68,11
24,-1255,18,3,11,4,11,-5,13,20
72,-2219,0,0,3,-3,10,0,25,23
119,-3053,18,-6,-7,-9,1,12,33,17
161,-3650,38,0,-9,-26,-31,-7,-3,6
183,-3811,42,-3,-25,-45,-60,-38,-39,-11
190,-3687,78,-9,-41,-62,-60,-50,-40,-20
127,-3349,61,-36,-44,-56,-37,-34,-50,-41
28,-2719,26,-53,-37,-49,-13,-28,-61,-56
-73,-1994,11,-42,-15,-20,8,-23,-51,-61
-150,-1185,-60,-60,0,27,33,24,-17,-38
-137,-319,-95,-53,16,61,41,59,12,-15
-32,667,-87,-34,17,78,2,47,-3,2
9,1161,-50,-7,23,84,-12,19,-32,-3
-12,1186,-50,-1,6,76,8,9,-24,-11
-11,799,-29,-16,-10,51,31,8,-18,-13
-37,181,-20,-20,-22,36,38,8,-20,-10
-97,-243,-42,-27,-26,35,54,20,-6,-19
-63,-733,-87,-41,-40,35,61,41,37,0
32,-1015,-159,-45,-43,17,52,49,27,11
63,-1014,-72,-21,-31,17,48,54,32,12
87,-768,31,11,-21,1,37,36,30,14
58,631,28,32,5,-5,44,21,13,6
44,2257,39,53,24,-1,35,3,18,1
44,2977,41,56,11,-3,20,-5,-13,18
3,3953,10,33,19,13,13,-2,-16,24
-15,4965,-66,2,12,11,4,-4,-12,24
-15,6100,-167,-28,-9,-5,-4,-12,-11,18
7,7480,-146,-49,-34,-26,-23,-33,-32,-11
83,8350,43,-1,-37,-39,-82,-89,-80,-45
123,8335,129,8,-48,-28,-125,-99,-81,-46
152,8000,118,6,-41,-25,-122,-85,-58,-34
143,7527,73,-11,-31,-20,-119,-64,-25,-19
36,7061,19,-19,-15,0,-90,-26,3,-5
-43,6479,-38,-52,5,24,-42,2,13,-2
-39,5866,-22,-55,35,38,-12,32,32,25
-5,5404,58,14,61,41,-17,38,25,73
18,4918,28,66,91,27,-36,26,46,78
56,4687,-6,88,135,16,-25,12,12,30
79,4937,-38,83,108,5,26,-9,-19,-22
28,5105,-43,77,33,-42,-12,-60,-60,-56
-15,5068,-11,108,66,-90,-114,-138,-148,-111
88,4893,16,59,30,-120,-149,-166,-170,-103
111,4630,25,18,-21,-84,-103,-107,-115,-42
-80,4361,-22,158,77,-8,-41,-66,-83,-73
-183,4086,40,364,142,23,-31,-55,-69,-101
-16,3845,154,395,75,15,-52,-45,-45,-5
0,3631,134,261,64,35,-46,-31,-28,4
-194,3408,26,162,59,87,20,19,11,-92
-199,3199,-70,61,-21,97,80,86,62,-103
-95,3011,-1,-20,-90,52,90,97,69,-62
-78,2841,39,-85,-166,20,84,68,42,-33
-76,2669,11,-160,-242,21,118,96,104,13
-49,2499,48,-186,-203,26,132,120,133,57
-17,2346,-18,-234,-144,23,141,122,141,80
0,2205,-71,-194,-101,15,133,72,89,34
32,2070,-132,-135,-48,-1,80,53,77,38
30,1941,-121,-88,-16,-11,16,28,61,31
40,1823,-61,-22,16,-11,-36,-23,-4,-5
87,1709,-50,20,26,-5,-45,-59,-31,-35
104,1627,-38,78,36,4,-19,-69,-38,-52
103,1521,13,110,23,4,-5,-49,-28,-38
55,1427,120,48,-17,-12,0,-26,-37,-18
47,1329,105,-38,-51,-8,17,17,1,45
75,1241,62,-119,-117,-18,10,31,45,99
58,1166,45,-121,-107,-30,11,14,15,76
57,984,86,-29,-40,0,29,7,17,49
-52,370,130,95,22,5,34,10,-5,15
-119,-829,177,186,60,-12,31,-9,-33,-3
-109,-2273,141,141,54,-27,16,-35,-63,-57
25,-3828,22,12,35,-48,-16,-74,-122,-119
265,-5514,-73,51,79,-41,-24,-103,-134,-114
325,-6858,-137,154,152,-21,2,-58,-65,-69
89,-7634,-63,141,158,-4,40,18,-2,-70
-94,-8071,28,154,51,-63,3,1,0,-93
-85,-8437,-11,71,-51,-70,-18,-6,6,-77
-5,-8065,-15,-29,-31,6,42,56,46,-44
46,-6637,-16,-173,-44,-3,32,64,61,9
108,-3880,6,-262,-90,-23,16,67,70,53
4,-2412,45,-213,-87,18,60,107,67,66
-127,-1600,65,-182,-84,77,121,144,97,79
-128,508,38,-186,-49,98,136,136,99,73
-92,1914,-11,-151,-37,62,129,95,78,52
-74,1762,-28,-96,-23,39,152,110,77,43
-23,635,11,-73,-18,16,144,102,76,40
46,-2131,50,-71,-35,-29,61,49,55,33
76,-8432,-8,-140,-69,-81,0,-3,15,0
48,-14049,7,-223,-108,-114,-27,-36,-22,-36
-45,-14656,76,-232,-133,-150,-73,-81,-79,-97
-2,-13224,165,-212,-146,-189,-150,-162,-157,-170
170,-8894,211,-147,-111,-193,-214,-216,-201,-198
162,-3740,206,-5,-23,-198,-287,-266,-265,-242
-32,-2051,154,133,10,-198,-305,-283,-285,-288
-51,-3639,38,270,37,-182,-263,-267,-240,-254
17,-6020,33,344,148,-124,-196,-238,-198,-194
-80,-6688,-76,251,186,-71,-126,-175,-141,-215
-72,-4702,-328,207,251,-37,-99,-150,-145,-248
182,-991,-228,465,411,28,-119,-169,-183,-179
87,1689,-150,538,361,122,-19,-66,-98,-108
-299,2214,-438,126,151,142,112,90,94,-25
-200,-366,-467,-176,11,142,172,201,201,108
7,-7594,-214,-204,-65,126,235,271,252,171
171,-10417,1,-194,-85,80,234,297,274,243
27,-9778,-38,-230,-88,20,195,274,246,213
-171,-5779,-17,-178,-131,-21,177,265,269,147
-70,2542,109,-105,-139,-3,196,254,259,155
9,7352,78,-141,-83,57,204,253,208,181
-60,6340,-55,-244,-57,37,161,227,171,170
-87,2285,-135,-247,-29,-18,110,157,72,97
-100,2207,-68,-141,-14,-37,59,84,37,36
-169,4193,82,-73,-48,-72,16,35,1,-2
-175,6287,283,-47,-68,-89,-13,-15,-70,-50
-195,8789,308,-63,-52,-53,-64,-91,-150,-96
-142,9203,230,-93,-53,-64,-113,-151,-196,-117
-100,8419,130,-130,-82,-86,-140,-150,-152,-104
-83,8045,98,-118,-83,-72,-134,-121,-120,-101
-8,7733,-50,-147,-102,-50,-92,-72,-89,-92
255,7212,-133,-172,-116,-19,-32,-6,-50,-20
543,6568,-37,-141,-118,-48,-40,-30,-56,52
374,5287,-56,-106,-70,-45,-12,-14,-34,61
49,3319,-127,-79,-10,-7,37,27,-3,42
14,1317,-213,-58,63,60,141,149,109,97
45,635,-164,-8,69,82,168,213,138,119
41,1351,-68,26,0,31,104,128,52,61
-127,986,-107,33,-23,-21,73,52,0,23
-241,-169,-93,29,-30,-73,45,17,-21,57
-172,-1125,-10,61,-15,-38,59,41,21,81
-199,-1154,-26,58,6,6,68,29,13,-2
-108,158,-68,14,-16,0,22,-7,-18,-75
0,1399,-104,-14,-41,-36,0,-14,2,-82
52,1723,-36,-1,-57,-46,1,-13,6,-50
62,1389,-11,1,-48,-55,8,-7,11,-29
42,1235,-24,30,-19,-60,13,4,9,-13
4,699,-35,34,-4,-62,12,-3,-29,-35
5,175,-58,-3,-27,-105,-17,-45,-82,-84
70,-222,-33,-48,-70,-166,-65,-89,-115,-94
259,-753,-52,-55,-60,-188,-122,-123,-139,-60
317,-1488,-89,67,28,-180,-138,-143,-148,-54
322,-1987,-51,315,82,-166,-171,-166,-140,-59
273,-2075,-50,443,49,-182,-212,-177,-126,-67
26,-1832,46,667,94,-210,-275,-251,-206,-167
-123,-1384,71,938,273,-150,-232,-268,-254,-247
-352,-1273,-22,863,364,-16,-86,-147,-171,-245
-789,-1312,-255,359,255,26,49,-10,-55,-323
-466,-982,-293,-184,31,-25,52,15,-26,-245
-21,-631,-93,-257,-88,23,112,77,80,18
-252,-824,-225,-247,-48,134,234,186,153,91
-199,-1348,-430,-403,-59,175,294,262,215,148
188,-2217,-58,-482,-223,81,222,245,241,245
253,-3107,215,-499,-279,14,154,203,217,260
162,-3634,232,-484,-239,35,174,205,240,247
290,-3983,199,-439,-240,-20,106,130,163,211
369,-3588,120,-363,-212,-83,0,-14,45,141
250,-2165,111,-265,-168,-100,-23,-96,-49,54
-14,-1796,105,-210,-145,-93,-12,-96,-65,-40
-277,-1059,104,-142,-83,-75,-46,-108,-109,-148
-484,479,22,-38,88,-48,-85,-113,-107,-191
-629,1029,-125,155,381,28,-74,-108,-99,-263
-526,1083,-262,306,556,90,-67,-126,-150,-344
-286,2380,-353,387,634,156,-38,-82,-106,-252
-158,5889,-293,415,514,145,-38,-34,-38,-125
-104,7129,-241,223,70,19,-102,-49,-26,-69
-13,6752,-80,128,-271,-104,-193,-123,-73,-32
19,6343,176,357,-145,-142,-244,-173,-98,-13
411,5968,337,502,-181,-170,-248,-162,-51,61
669,5615,267,521,-138,-181,-243,-211,-75,45
577,5262,266,332,7,-98,-205,-211,-108,-8
-147,4940,69,5,59,66,-53,-89,-39,-142
-562,4646,-208,-252,87,205,167,85,89,-162
-257,4362,-246,-172,289,306,408,231,176,4
-166,4086,-17,206,337,276,520,339,235,134
29,3865,45,207,83,158,459,410,311,266
201,3647,150,84,-169,-27,213,231,188,228
55,3414,500,65,-320,-231,-116,-78,-94,-6
34,3206,395,-156,-374,-203,-141,-105,-106,-28
175,3032,180,-174,-246,-21,-28,-11,-24,62
215,2878,-35,-6,-53,105,22,6,1,77
125,2712,-135,153,90,162,49,-28,-15,43
-92,2545,-171,85,141,142,66,-92,-114,-74
3,2391,-146,36,33,68,12,-191,-220,-199
414,2228,-180,-206,-140,-28,-68,-227,-243,-117
445,2091,-293,-302,-151,-64,-70,-127,-104,50
12,1984,-179,-136,-120,-3,9,38,50,78
-395,1870,-116,-235,-155,108,172,203,184,54
-284,1754,105,-298,-136,131,199,224,180,118
-280,1631,214,-343,-108,202,274,308,227,219
-353,1526,18,-415,-99,242,310,370,265,209
-220,1423,-50,-360,-81,242,295,365,262,158
44,1331,133,-279,-99,148,183,237,192,108
47,1250,329,-202,-102,14,32,88,68,-17
-103,1180,360,-5,122,38,-3,29,1,-108
-169,1119,126,104,332,151,43,53,6,-73
-145,1055,-1,163,464,198,5,-12,-40,-95
-139,995,-56,132,421,189,-54,-75,-102,-156
-87,939,-127,105,144,158,-14,-13,-52,-127
-19,873,128,274,-106,31,-57,-15,-67,-128
17,813,582,585,-237,-177,-263,-172,-179,-181
-17,744,691,639,-269,-276,-385,-283,-252,-250
16,557,305,225,-228,-163,-222,-139,-119,-130
81,-149,41,-248,-231,-31,-48,-12,5,10
160,-1601,-234,-704,-245,88,125,63,58,52
152,-2889,-210,-695,-240,70,140,43,16,27
219,-4688,88,-406,-119,-26,-23,-57,-68,15
263,-7391,257,-240,-95,-139,-163,-146,-126,41
108,-9171,74,-234,-112,-156,-125,-83,-29,82
125,-9621,-120,-295,-91,-100,-12,28,150,152
253,-11212,-116,152,0,-57,-12,30,144,147
37,-12656,-77,707,172,53,0,-4,-5,-63
-432,-13908,-72,762,323,157,52,-13,-82,-355
-635,-14775,-204,232,110,109,33,-45,-92,-397
-376,-14171,-433,-355,-120,77,53,-35,-43,-231
-126,-13192,-553,-370,-34,125,117,24,16,-84
4,-12865,-426,-39,95,104,151,57,91,17
309,-12447,-153,185,145,40,96,15,26,35
685,-11726,112,20,13,15,139,-10,-44,5
723,-11047,297,-174,-107,4,148,1,-52,34
135,-10392,265,-177,-147,-37,83,67,58,52
-167,-9762,484,-34,-95,-63,23,69,122,101
-23,-9179,697,-9,-22,-30,-16,20,56,133
-91,-8632,316,-188,-117,17,67,101,130,169
6,-8118,76,-314,-194,-25,68,104,146,221
187,-7649,222,-384,-184,-29,70,107,164,253
189,-7196,202,-406,-132,19,98,126,189,216
-16,-6767,1,-325,-44,36,48,104,110,124
-41,-6353,49,-89,116,52,-35,1,29,62
-67,-5970,33,125,358,153,10,15,20,33
114,-5611,-190,160,506,171,15,7,22,73
305,-5259,-412,9,293,76,-58,-31,3,150
31,-4926,-500,-69,58,18,-95,-47,-25,139
-238,-4630,-174,222,-85,-35,-111,-86,-55,108
-448,-4353,153,430,-198,-20,-9,-21,6,128
-502,-4088,301,541,-139,-54,-32,-47,-1,62
-403,-3849,421,699,-47,-165,-156,-168,-135,-83
-170,-3609,553,698,66,-193,-229,-263,-252,-252
261,-3324,451,451,17,-173,-219,-280,-261,-304
424,-2986,141,96,-19,-58,-79,-137,-162,-216
22,-2869,-88,-240,-61,5,47,-2,-69,-114
-172,-2465,-137,-406,-106,31,73,56,10,16
62,-2004,-167,-244,-87,101,171,163,138,142
152,-751,-59,238,59,188,211,202,153,107
3,764,76,380,164,155,157,146,86,2
-76,2440,-93,257,232,67,18,-27,-71,-72
-63,4479,-381,428,471,75,-80,-178,-212,-52
-232,6681,-644,467,745,225,-46,-157,-254,-104
-366,8305,-812,250,553,242,22,-51,-169,-127
-369,9964,-867,-67,63,106,11,36,-38,-50
-237,11662,-493,138,-217,-61,-99,-11,-34,-10
-207,13291,224,581,-185,-200,-239,-134,-110,-65
-228,14315,702,404,-164,-289,-346,-210,-145,-67
135,13998,813,-177,-373,-296,-310,-148,-40,221
750,13223,608,-612,-480,-212,-231,-50,87,592
1106,12437,358,-734,-486,-148,-157,2,172,807
954,11674,205,-776,-540,-157,-60,23,167,782
641,10941,104,-798,-558,-180,33,46,84,571
348,10127,-126,-540,-255,-158,-46,-27,-72,209
203,9386,-356,-194,222,-99,-242,-190,-219,-32
225,8993,-556,206,714,107,-251,-199,-264,-138
130,8574,-803,394,853,330,-86,-53,-151,-166
-35,8074,-606,388,559,265,-86,-43,-149,-301
-484,7578,77,434,345,66,-236,-106,-139,-410
-783,7094,415,282,-219,-132,-295,-167,-142,-403
-960,6626,667,118,-473,32,97,23,11,-213
-654,6262,927,-38,-307,390,649,323,226,74
-162,5902,639,-366,-283,619,1035,516,347,226
157,5533,261,-531,-218,598,1073,523,371,256
-23,5057,115,-330,-111,419,836,466,385,158
-335,4159,56,118,67,226,535,298,238,-25
-357,3422,67,673,454,200,292,117,67,-118
-140,3782,219,868,559,194,116,-42,-82,-100
-159,3149,163,773,362,108,-2,-143,-149,-24
-337,840,-222,182,64,21,-35,-140,-112,50
-262,-2960,-226,-112,-157,-121,-114,-174,-170,54
231,-3941,156,-146,-261,-239,-180,-185,-153,139
839,-2446,371,-252,-397,-259,-139,-63,-20,364
768,-2274,293,-466,-567,-259,-71,24,115,497
567,-3089,125,-543,-635,-177,-23,45,147,534
115,-3819,-189,-356,-383,49,195,111,102,312
-247,-4531,-698,67,-174,84,283,159,124,163
-360,-5162,-1042,-117,-106,9,187,147,170,186
-386,-5982,-1055,-314,-1,-26,42,36,97,51
-267,-6846,-603,-4,256,30,-71,-56,-41,-226
138,-9535,141,205,261,80,-49,-25,-50,-407
289,-12943,814,106,116,33,-9,50,23,-387
94,-12975,1122,-86,-141,-94,-32,54,12,-317
-348,-12223,691,-352,-306,-93,11,98,37,-373
-684,-11513,186,-485,-255,-40,63,112,61,-500
-500,-10831,107,-367,-146,10,72,101,86,-367
38,-10203,81,-246,-56,90,111,93,99,-86
386,-9598,-71,-176,48,94,137,30,27,31
260,-9027,-287,-29,175,21,88,-61,-54,-49
237,-8492,-404,3,257,-48,39,-47,-67,-113
402,-7989,-234,-202,129,-159,-45,-40,-36,3
109,-7512,-108,-204,-21,-253,-191,-159,-130,-4
-182,-7064,-157,-53,-26,-165,-157,-139,-152,-82
-321,-6641,0,0,-56,-13,3,11,-18,-62
-246,-6247,157,73,-103,57,138,134,117,-4
-214,-5876,242,154,-55,100,140,183,138,1
57,-5519,178,50,-40,41,-28,91,53,25
400,-5184,240,-29,-99,-81,-198,-34,-78,62
257,-4881,199,31,-74,-92,-169,-40,-122,-3
-21,-4593,-10,3,-27,-29,-70,5,-76,-54
-12,-4317,-73,-11,6,-9,-50,-4,-66,-41
16,-4056,-27,16,32,0,-15,55,45,52
-102,-3814,44,120,74,4,-21,67,107,121
99,-3599,136,172,72,-54,-120,-74,0,129
50,-3395,49,166,120,-19,-101,-107,-9,109
135,-3189,92,318,155,-42,-153,-163,-41,134
470,-2976,241,436,143,-117,-255,-281,-143,105
605,-2800,249,379,161,-117,-304,-336,-157,-7
41,-2633,-96,262,204,-77,-285,-328,-246,-277
-627,-2469,-458,335,271,-43,-286,-335,-320,-446
-327,-2331,-487,476,388,133,-121,-165,-110,-190
124,-2186,-446,411,364,268,29,-25,11,25
177,-2052,-330,280,289,248,13,-42,-28,17
-132,-1923,-134,557,552,323,109,8,26,23
-162,-1815,80,715,770,369,190,88,117,86
-159,-1702,77,269,524,110,26,22,74,66
-199,-1600,-35,-166,-86,-138,-95,-13,101,53
-232,-1493,131,-101,-250,-164,-136,-44,43,7
-108,-1396,383,-64,-236,-112,-68,9,92,60
291,-1312,234,-526,-413,-86,78,198,339,366
328,-1229,-63,-587,-369,-29,143,332,475,534
260,-1150,-215,-425,-267,21,116,327,409,532
284,-1066,-68,-389,-201,19,20,166,271,467
256,-978,79,-486,-224,-47,-23,47,159,275
166,-911,48,-543,-205,-35,90,53,55,23
-40,-822,241,-437,-181,-35,17,-43,-105,-177
-175,-687,506,-306,-219,-114,-144,-187,-155,-242
-24,-18,322,-234,-223,-165,-184,-234,-112,-163
243,1453,24,-148,-86,-72,-120,-153,-37,-10
293,3530,-127,-56,134,-19,-105,-108,11,65
153,5737,-414,-32,285,14,-132,-71,70,124
-61,6394,-590,-28,328,128,-66,-14,100,133
-253,6587,-631,-46,316,172,-25,13,62,82
-143,7029,-506,92,237,89,-98,-77,-84,-51
67,7726,-143,163,32,-16,-147,-141,-210,-95
-43,8810,404,363,-35,-116,-146,-215,-289,-159
-401,9756,724,580,-175,-171,-138,-227,-292,-242
-231,10087,566,215,-266,-65,10,-96,-159,-183
337,10527,433,-107,-144,124,219,123,131,130
290,10956,258,-66,4,228,295,279,405,370
-18,11247,-9,-31,-6,230,322,311,477,332
-251,11338,-81,-56,-85,89,176,178,311,167
-268,11499,17,-9,-131,-98,-93,-39,114,165
-131,11506,-179,-31,10,-112,-215,-119,120,355
140,11292,-361,12,277,-41,-251,-157,179,627
338,10715,-484,-186,352,54,-176,-112,205,798
350,9454,-677,-400,160,91,-58,-2,197,847
449,8445,-820,-284,-148,40,-9,48,174,869
705,7992,-409,242,-153,-45,-103,-60,42,638
595,7466,41,510,49,-79,-193,-179,-184,-29
240,6960,340,452,138,-17,-165,-156,-268,-700
-174,6430,660,320,218,142,-14,10,-181,-949
-752,5793,755,441,409,309,185,250,19,-783
-863,5345,645,828,519,346,226,248,25,-669
-526,5066,601,861,237,65,-97,-60,-231,-782
-759,6531,-382,-605,-102,-14,-17,-136,5,-443
-310,6288,476,-673,-256,0,110,-66,2,-182
-61,6005,811,48,-57,-39,-4,-93,-76,-166
140,5665,387,184,-132,-78,-32,-18,10,-148
18,5283,-148,-328,-113,60,71,162,147,-86
-562,4843,-402,-402,192,382,361,492,422,62
-621,4468,-221,102,263,425,320,400,323,53
-398,4179,-159,479,189,346,193,196,135,-16
-228,3957,-52,242,0,199,101,71,19,-56
-221,3724,26,-158,-58,9,-54,-75,-154,-156
-1,3531,-95,-159,28,-21,-77,-97,-175,-140
337,3336,-2,8,73,-1,-3,-74,-87,-11
537,3120,267,-152,-135,-152,-127,-85,-9,167
305,2890,8,-406,-301,-229,-232,-58,102,277
126,2822,-266,-224,-37,-165,-302,-101,32,240
243,2581,-336,189,286,-122,-368,-180,-8,236
155,2219,-449,225,312,-128,-330,-160,28,224
52,2187,-465,-132,115,-93,-303,-41,145,281
156,2186,-202,78,89,10,-286,-36,166,329
326,2193,333,653,248,-20,-402,-263,-65,157
518,2088,561,498,60,-46,-400,-265,-74,177
531,1938,139,-155,-158,48,-165,-18,108,404
34,1754,-26,537,-91,118,88,92,91,296
-357,1571,-104,1740,516,199,80,22,-80,108
-684,1435,-491,1497,574,138,-111,-234,-345,-314
-859,1235,-591,341,161,-8,-91,-333,-536,-778
-422,1152,-73,-275,29,-12,129,-183,-424,-682
56,1180,677,-327,-173,38,208,-41,-231,-347
246,977,1302,-760,-560,-27,233,88,10,-120
375,914,1356,-1202,-831,-145,314,164,112,-38
481,1207,613,-1113,-790,-81,403,222,141,57
411,1326,-192,-1015,-736,-102,255,201,156,145
257,1263,-396,-1058,-664,-239,40,103,75,93
-42,1193,-244,-594,-346,-229,-64,6,-8,-85
-92,1128,-181,-151,-61,-86,-39,5,5,-95
2,1069,-199,-243,-88,-59,-22,18,-23,-44
-54,997,65,-365,-71,-23,38,27,-54,-43
-226,916,124,-428,96,190,292,287,220,155
-139,866,-37,-275,260,311,439,407,364,218
118,808,-71,-33,332,268,352,260,215,176
115,756,-59,168,360,200,206,126,111,137
94,722,-81,326,393,180,113,100,30,66
323,672,-18,318,342,128,41,133,25,49
455,615,-99,-23,87,25,-11,140,150,154
487,574,68,-145,-117,-96,-161,-84,21,125
334,549,204,-207,-190,-170,-256,-288,-299,-87
69,527,-7,-281,-209,-191,-250,-250,-203,-40
202,493,-194,-269,-170,-185,-181,-72,149,189
607,467,-190,-133,24,-26,-49,70,313,297
539,441,-237,144,437,194,-19,-2,196,244
-184,430,-340,510,783,340,26,-112,-46,-50
-696,404,-822,261,734,437,226,69,50,-24
-938,381,-1428,-249,394,401,359,269,235,89
-1016,359,-1087,324,116,83,13,-101,-106,-209
-654,332,51,1407,128,-164,-334,-473,-469,-407
-233,319,1173,1362,-124,-293,-376,-485,-540,-349
-31,300,1300,529,-192,-166,-17,-119,-227,-125
330,276,685,-61,-63,-215,-126,-54,40,124
557,256,367,-317,-260,-234,-90,-16,142,208
149,235,85,-555,-485,-206,74,164,318,169
2,233,91,-498,-520,-289,-28,140,344,153
122,226,244,-405,-358,-185,-51,125,315,201
-132,209,224,-438,-138,0,46,91,176,56
-240,202,43,-468,-24,36,56,-3,69,-30
-202,187,-112,-264,263,100,125,-36,-15,-132
259,179,-220,-10,526,257,302,163,119,13
547,167,-519,-204,285,260,342,346,431,297
-2,158,-858,-562,-307,4,95,206,426,344
-408,142,-518,-209,-571,-310,-305,-211,-7,196
274,137,441,549,-386,-498,-576,-483,-352,62
1263,119,711,700,-292,-494,-500,-383,-260,45
1593,114,310,727,-179,-274,-228,-87,104,304
1001,117,115,782,32,-46,-97,-125,-41,205
113,94,-141,480,194,170,3,-180,-283,-87
-557,84,-67,54,264,287,134,-76,-228,-295
-1101,89,93,-265,244,319,250,100,-45,-413
-1025,94,22,-443,112,288,329,248,109,-324
-778,87,-189,-506,34,269,342,331,204,-175
-610,69,-596,-377,23,208,204,166,26,-180
-336,74,-956,-265,9,76,59,38,-72,-126
-337,77,-967,-51,82,-14,18,42,-50,-84
-651,56,-585,384,213,52,65,75,-26,-191
-686,49,10,557,309,30,8,0,-97,-249
-122,65,809,386,-13,-221,-209,-166,-197,-171
461,57,719,-32,-219,-274,-246,-176,-165,-10
699,45,-4,-180,-49,-144,-108,-31,-19,205
657,43,-127,231,243,40,81,181,210,406
131,27,-77,413,396,91,114,224,208,284
-374,11,6,252,195,-92,-138,-101,-166,-340
-322,-28,140,75,-44,-164,-194,-204,-312,-751
-412,-146,580,325,-39,-225,-242,-241,-338,-835
-524,-340,923,350,-267,-406,-350,-322,-339,-676
-286,-625,744,-152,-475,-338,-195,-137,-116,-284
-202,-1245,141,-726,-463,-129,35,97,73,-67
406,-2519,115,-637,-266,20,136,186,174,125
648,-3683,263,-426,-97,134,196,213,246,304
331,-3925,-13,-474,32,223,291,221,216,307
356,-3874,-191,-352,262,319,420,280,200,323
394,-3585,-286,-156,477,403,427,339,270,287
-29,-3207,-520,-62,491,438,361,313,211,120
-351,-2710,-899,44,368,307,234,164,32,-32
35,-2297,-1067,237,17,16,-11,-34,-95,13
356,-2880,-758,275,-249,-204,-241,-240,-212,75
174,-3754,-370,290,-282,-305,-352,-328,-295,35
278,-4085,513,571,-164,-430,-487,-403,-366,122
540,-4095,1010,535,-86,-379,-432,-265,-191,437
467,-4207,623,69,-266,-236,-239,-37,145,685
366,-4185,271,-69,-63,-6,-25,85,211,526
462,-3603,-12,74,464,169,80,68,77,39
-58,-3375,-386,-401,478,233,146,93,26,-373
-1028,-3372,-812,-917,54,115,108,51,-58,-548
-276,-1930,-769,-492,-54,-21,-24,-60,-155,-320
353,498,-607,166,-72,-84,-16,0,-85,-76
95,1711,-494,216,-91,-18,95,191,72,72
-232,2315,355,321,-147,-7,58,251,154,127
-896,2588,1023,309,-301,-128,-151,76,-44,-112
-756,2917,1133,333,-276,-194,-323,-139,-280,-407
-71,3121,854,414,-63,-193,-369,-205,-279,-431
-44,2983,263,384,95,-105,-247,-37,-106,-406
376,2856,207,169,-82,-128,-188,49,-6,-273
637,2701,314,-264,-406,-184,-83,87,82,-17
134,2523,108,-476,-328,36,331,321,278,187
-569,2374,-359,-381,-234,109,389,264,167,64
-621,2240,-819,31,-5,102,203,85,1,-12
-418,2112,-1144,-159,195,155,162,100,11,26
-309,1983,-1046,-409,71,34,45,7,-55,-82
-63,1864,-253,-39,178,-98,-100,-143,-156,-124
-94,1748,873,741,305,-190,-286,-283,-230,-125
-193,1640,1167,1553,559,-35,-242,-184,-134,23
-211,1252,489,1478,660,242,87,112,151,165
-106,729,-303,893,575,392,315,198,178,137
33,1147,-570,529,512,368,259,115,34,76
47,1290,-23,241,415,114,29,23,-5,92
257,1212,280,-593,-107,-321,-232,-100,-69,199
782,1179,285,-1388,-479,-413,-259,-83,-25,391
1097,1111,71,-1369,-313,-256,-165,-26,68,500
1155,1036,-56,-1358,-318,-34,97,233,306,628
424,966,-438,-1556,-495,31,229,384,438,528
-390,880,-894,-1425,-525,-86,84,283,350,261
-180,799,-864,-762,-332,-223,-88,131,232,139
582,794,-632,-167,-207,-211,-78,83,180,132
836,776,-332,-65,-346,-217,71,69,98,78
482,715,346,225,-514,-338,34,-25,-42,-62
-225,662,659,362,-555,-429,-130,-74,-57,-142
-798,622,631,396,-265,-331,-101,-27,-17,-199
-686,623,782,514,190,99,241,129,142,-31
-435,619,487,195,326,501,548,269,262,103
-210,574,160,51,239,546,612,323,257,47
-251,521,-182,556,478,461,525,278,104,-131
-433,490,-529,813,678,308,226,-15,-268,-349
-440,482,-547,498,580,222,28,-259,-484,-498
-163,459,-160,-27,234,-41,-215,-345,-401,-411
-65,427,466,-272,-30,-100,-173,-179,-191,-259
-19,378,569,-329,-33,25,86,-11,-93,-191
-107,331,269,-98,137,194,315,92,-42,-113
-145,298,385,358,177,57,134,-37,-121,-134
-15,252,636,711,58,-217,-122,-223,-275,-158
128,187,513,343,-133,-186,-89,-197,-324,-153
233,148,201,119,3,19,72,-67,-241,-110
343,113,-220,372,297,304,352,236,61,120
90,100,-702,30,72,212,323,298,261,230
-399,82,-1010,-645,-521,-308,-178,-88,115,104
-254,91,-665,-593,-426,-284,-203,-110,146,326
328,148,93,-371,-177,9,38,77,252,575
579,188,417,-427,-153,86,106,115,258,572
222,187,192,-407,-75,101,104,144,294,356
14,125,182,-326,40,162,133,162,264,109
-137,81,-111,-307,13,175,130,154,219,-132
-82,19,-399,60,-52,52,-52,-41,88,-196
-353,-114,95,334,143,-85,-273,-321,-209,-415
-267,-312,64,434,413,-4,-228,-321,-215,-431
-1,-447,-409,284,630,106,-84,-115,-11,-231
69,-623,-746,-218,305,223,145,206,308,158
253,-732,-236,-163,65,199,118,217,328,414
235,-985,295,116,-108,39,-63,25,102,320
20,-1438,350,112,-177,-70,-93,-12,-16,126
224,-1455,663,437,-181,-263,-204,-191,-261,-196
697,-1339,779,1109,113,-179,-220,-314,-416,-302
453,-1697,-27,624,65,-59,-72,-165,-219,-110
-83,-2115,-937,-561,-375,-94,22,-10,-69,-92
205,-1799,-1218,-936,-600,-115,23,46,26,19
-41,-1500,-462,-305,-281,-83,-112,-58,15,-108
-32,-1241,669,138,16,-132,-297,-232,-107,-245
-179,-1665,697,-228,149,84,16,118,234,11
-311,-1962,661,-308,183,232,172,264,364,216
-198,-2329,718,-52,-110,93,53,135,232,202
-299,-3121,673,250,-199,16,20,108,132,-22
-332,-4006,439,165,-362,-90,-36,17,-65,-344
-118,-4660,332,150,-198,-72,-58,-37,-194,-434
341,-5233,333,85,16,96,73,107,-58,-244
567,-5607,112,-266,75,210,179,238,115,-27
642,-5709,-43,-422,98,144,59,146,78,59
427,-5852,-326,-504,18,59,-77,41,100,112
229,-6060,-655,-563,-147,-43,-233,-156,-54,-19
-168,-6364,-911,-558,-238,-143,-341,-295,-146,-195
-613,-6399,-707,-140,-19,-37,-212,-170,-43,-154
-548,-5812,-195,337,340,11,-114,-122,-3,-88
-189,-5082,-9,343,488,154,37,-9,57,-61
157,-4282,-237,43,491,304,115,147,213,164
456,-3340,-735,56,324,245,59,116,216,356
271,-2814,-548,838,342,204,76,5,30,214
-64,-2997,-25,1404,257,158,76,-29,-20,35
-70,-3258,671,1039,-193,-96,-118,-172,-131,-230
66,-3235,1197,114,-461,-323,-218,-277,-233,-315
-256,-2942,988,-281,-235,-190,-94,-113,-102,-107
-647,-2805,666,-71,149,-95,-142,-136,-137,-128
-212,-2514,148,-196,-49,-257,-277,-288,-263,-144
411,-1984,-440,-878,-522,-432,-345,-337,-270,-99
269,-1838,-832,-936,-611,-368,-303,-303,-283,-173
20,-1633,-430,-368,-284,-115,27,-157,-193,-120
93,-1515,-126,-58,11,132,350,128,107,283
203,-1416,-20,51,134,192,313,259,242,416
-85,-1474,-238,499,416,154,88,95,28,-63
-423,-1285,-511,1812,1131,405,73,50,-59,-401
-626,-655,-511,2379,1371,435,-55,-85,-180,-606
-1108,53,-744,1590,450,-19,-403,-327,-378,-808
-1494,753,-731,811,-329,-466,-752,-462,-440,-760
-1238,1552,424,1029,130,-482,-829,-479,-433,-615
-262,2410,1037,322,406,-185,-420,-198,-151,-200
550,2597,559,-977,268,226,251,317,374,380
660,2313,242,-1454,8,323,492,538,558,595
552,2114,331,-1580,-363,194,394,398,406,399
891,2051,368,-1772,-767,127,418,383,396,469
653,1719,290,-1790,-917,60,415,356,366,510
3,1579,141,-1573,-816,-14,292,252,274,417
124,1555,34,-1271,-639,-14,167,214,251,482
478,1367,-26,-757,-415,121,189,295,331,587
377,1089,15,25,-31,242,227,195,232,391
47,1050,15,893,401,170,90,-90,-72,24
-155,909,-27,1094,397,-67,-52,-255,-300,-185
-83,513,-65,1076,224,-193,-123,-320,-364,-161
-5,-25,-300,703,156,-122,-143,-253,-302,32
-215,-541,-727,80,59,46,-58,-70,-140,170
-337,-569,-654,-290,-33,70,-15,18,-12,120
221,-215,151,-131,196,-16,-138,-112,-110,-99
657,-637,453,129,826,133,-38,-60,-43,-199
372,-1786,217,35,922,337,145,130,123,-156
-389,-2776,389,-207,382,380,279,254,180,-192
-648,-3443,587,-135,-97,102,156,128,48,-260
-337,-3882,907,94,-424,-204,-40,14,-57,-271
300,-3980,788,-337,-619,-198,-62,87,17,-73
806,-3753,510,-703,-601,-75,-48,104,60,131
516,-3730,36,-698,-485,41,63,110,87,168
228,-3905,-357,-360,-300,174,230,154,80,117
304,-3919,-774,-101,-246,184,238,168,91,93
58,-3568,-1018,-121,-368,30,81,44,20,-35
-243,-2917,-534,4,-143,-41,-202,-229,-159,-178
-255,-1958,128,446,309,162,-137,-285,-222,-244
-84,-1216,333,156,304,296,229,-48,-88,-206
-126,-629,-28,-385,293,249,315,3,-74,-209
-539,-201,-127,307,1006,449,183,-109,-129,-215
-990,69,143,1554,1680,627,96,-219,-174,-294
-847,525,136,1318,1240,396,63,-156,-129,-265
-595,1018,-140,425,142,-172,-222,-262,-198,-222
-474,1464,-48,160,-147,-338,-352,-386,-235,-170
89,1750,45,119,-16,-205,-94,-62,100,149
534,1431,-158,284,56,-95,165,304,420,473
371,1498,-503,91,-162,-89,181,311,421,443
121,1465,-523,-164,-317,-259,27,111,274,276
107,2341,59,418,-63,-250,-93,-36,187,205
209,3234,473,934,262,-78,-69,-61,129,202
175,3850,120,286,2,-170,-154,-127,95,217
225,4012,-559,-581,-477,-348,-277,-127,132,307
520,4573,-928,-594,-445,-254,-168,35,195,452
771,5257,-614,-123,-284,-154,-65,164,273,566
659,5774,348,152,-139,-91,-77,179,349,581
426,5932,774,-410,-355,-224,-237,12,181,411
366,5782,410,-1094,-327,-161,-186,-10,51,333
56,5255,506,-731,-71,0,-7,111,98,158
15,4678,899,-614,-229,-145,-49,-1,-34,-180
322,4319,729,-944,-379,-153,51,-41,-87,-293
-52,3698,299,-936,-328,-2,237,107,69,-174
-665,3177,37,-580,-348,50,263,198,136,-68
-741,3210,45,-193,-351,38,268,250,171,-57
-244,3266,95,-156,-472,-213,83,167,161,-33
469,3451,183,-202,-514,-357,-33,90,128,171
187,3361,352,-52,-217,-146,78,106,80,137
-127,3258,210,-55,36,80,190,102,69,-40
-32,3165,-221,-199,69,171,204,124,108,-32
278,2634,-417,-143,75,207,212,219,225,197
500,2421,-493,139,286,269,190,305,522,644
384,2527,-779,210,456,265,110,232,564,846
22,2430,-1051,154,484,261,46,17,97,319
-399,2301,-804,413,456,275,-1,-168,-341,-383
-565,2224,-8,649,149,19,-248,-340,-510,-632
-290,2213,525,372,-134,-150,-284,-344,-424,-339
151,2163,725,1,-264,-125,-76,-188,-217,1
264,1965,789,-151,-324,-142,-36,-119,-117,32
170,1695,208,-361,-337,-129,29,-13,-20,-3
130,1573,-345,-490,-333,-98,90,47,62,-10
616,1559,-427,-455,-355,-208,-128,-174,-119,-25
1047,1616,-514,-187,-51,-183,-189,-257,-182,66
305,1550,-572,168,374,41,10,-52,17,96
-1139,1491,-370,534,575,184,143,77,82,-124
-1216,1550,-329,1155,673,280,177,66,-28,-311
-494,1595,-164,1259,542,106,-93,-229,-328,-366
-198,1515,-148,1108,306,-70,-252,-353,-398,-252
37,1424,67,729,8,-165,-251,-291,-274,-101
263,1348,581,231,-265,-302,-243,-260,-161,-117
321,1271,747,39,-104,-159,-102,-124,-51,-37
262,1190,470,38,392,170,89,131,154,181
421,1112,234,323,490,407,324,378,351,461
-98,1041,-469,396,233,350,274,349,283,364
-1035,976,-680,351,-119,-121,-317,-182,-230,-210
-859,906,87,1227,197,-342,-600,-511,-500,-485
-171,844,196,573,-51,-280,-209,-202,-288,-556
-30,774,-171,-918,-574,-195,79,140,-53,-711
-446,677,-98,-967,-424,1,246,285,-24,-792
-704,598,417,-360,-152,160,287,209,-97,-701
-484,571,588,-540,-425,102,228,105,-32,-388
-100,581,334,-740,-657,28,394,181,72,-70
315,572,-59,-860,-521,15,400,212,140,193
469,533,60,-533,-119,36,180,71,67,173
368,486,-69,-223,195,141,129,93,31,110
121,441,-411,56,413,262,133,160,101,163
-182,364,-464,299,402,200,-12,49,31,107
-428,290,-363,106,296,-19,-251,-161,-156,-173
-394,245,-247,-22,354,-16,-269,-150,-115,-201
-156,244,117,100,348,-99,-444,-339,-273,-363
-87,80,121,382,186,-218,-535,-494,-425,-570
463,24,6,532,209,-138,-390,-419,-387,-400
947,-80,-397,-140,-117,7,-51,-97,-120,43
959,-492,-933,-362,-227,233,249,195,183,350
277,-1208,-136,810,112,161,37,-39,-18,89
-395,-1671,1520,1171,94,-91,-135,-267,-258,-235
-426,-1721,1611,678,-115,-53,138,-54,-61,-116
-286,-1679,710,98,-306,25,279,136,80,-7
-40,-1304,234,-394,-633,-220,52,94,69,126
-83,-1119,204,-59,-549,-300,-13,124,175,274
-31,-1350,194,35,-244,-151,110,153,196,269
173,-1491,59,-371,-24,11,187,157,190,251
147,-1344,-116,-846,103,173,272,273,307,388
-112,-1300,-152,-1148,59,186,240,311,349,455
-123,-1449,-308,-923,75,168,191,299,301,342
-134,-1874,-620,-405,336,223,219,307,248,164
-1,-2336,-776,-250,418,174,109,228,199,103
119,-2849,-302,-386,65,55,-21,179,225,172
141,-3449,365,-86,-110,-73,-153,46,58,147
213,-4071,306,33,-97,-40,-119,-35,-31,123
154,-4653,36,-267,-118,83,51,34,33,137
357,-5043,24,-510,-335,-20,77,10,45,177
1051,-5011,-15,-449,-408,-253,-160,-154,-96,207
1600,-4962,-14,-178,-247,-287,-315,-226,-151,255
1062,-5417,-219,-68,-127,-195,-242,-148,-118,121
-489,-6136,-501,-41,-10,-52,-55,-10,-61,-232
-799,-5827,81,226,123,-8,-36,-32,-93,-266
-550,-5424,407,227,39,21,94,32,-26,-108
-425,-5488,131,48,-35,33,164,116,93,-24
-113,-5298,0,78,27,55,126,123,118,37
-195,-5219,-176,112,73,64,78,99,94,58
-449,-5209,-277,70,4,-13,-38,6,11,46
-506,-4996,-118,170,17,-36,-135,-111,-138,-58
-236,-4861,182,226,27,-50,-198,-193,-185,-151
164,-5006,160,238,-28,-68,-197,-174,-141,-131
255,-5252,-239,419,80,17,-109,-56,-33,-68
-193,-5493,-608,388,379,29,-139,-104,-91,-110
-433,-5343,-350,402,619,110,-88,-89,-86,-58
-359,-5094,-197,456,667,214,11,-18,9,-27
-185,-4820,-537,110,431,65,-70,-86,-51,-150
-157,-4134,-259,258,323,-279,-350,-263,-289,-264
15,-3437,54,63,121,-343,-339,-164,-143,-112
107,-3006,-240,-624,-401,-199,-93,94,162,-29
78,-2460,115,-210,-621,-298,-214,-55,-14,-271
-120,-1792,877,271,-429,-278,-238,-174,-164,-455
-369,-1154,779,164,-257,-57,72,5,-24,-364
-255,-425,363,-72,-262,41,246,98,38,-254
114,299,252,85,-74,37,159,19,-30,-202
427,673,28,-71,91,56,210,118,194,108
510,1055,-285,-500,-10,38,242,206,307,304
270,1285,-398,-479,-46,36,185,134,173,180
93,1397,-322,-173,6,52,118,18,41,44
-11,1587,-192,-10,-32,-17,-5,-119,-50,-60
-325,1796,37,237,-43,-87,-62,-172,-115,-205
-445,2044,-113,555,26,-96,-68,-183,-234,-282
-163,2120,-631,250,-117,-171,-102,-172,-210,-182
154,2442,-1023,30,-338,-293,-162,-140,-156,37
398,3798,-661,411,-137,-205,-126,-88,-52,169
201,4390,549,711,101,-162,-194,-171,-54,24
-93,5046,1180,412,272,-2,-114,-114,-39,-97
-77,5527,1060,-201,182,62,14,29,75,-102
81,5554,527,-594,-20,87,105,196,233,11
-25,5615,-7,-559,29,185,113,173,123,-69
143,5713,-276,-482,-28,100,-13,40,15,-53
525,5776,-186,-320,-15,14,-147,-105,-51,29
471,5677,-24,-167,41,-8,-180,-179,-116,-23
-190,5220,-148,-122,57,-31,-129,-98,-23,-28
-309,4955,-237,35,120,-23,-46,-28,73,91
250,4804,-10,135,74,-7,-5,-9,86,262
189,3889,-91,-47,-189,-141,-118,-127,-62,218
241,2248,-130,-117,-312,-191,-141,-149,-65,294
54,1083,-165,31,-252,-112,-38,-46,10,226
283,1209,-98,238,-103,47,122,67,54,110
156,1737,-223,460,110,133,190,111,84,66
39,1700,-327,463,114,25,48,-26,10,58
-114,1894,-25,580,403,168,32,-86,-95,-63
-151,2599,-106,494,561,346,133,28,-2,-48
-452,3138,-436,2,491,428,298,287,309,135
-973,3603,-372,-412,314,305,204,198,203,-9
-931,3587,331,-258,148,2,-157,-185,-191,-399
-514,3386,332,-324,-58,-59,-166,-104,-89,-267
-105,3161,6,-401,-201,-69,-102,49,107,117
140,2972,407,152,-231,-231,-112,-50,-26,206
188,2791,199,-45,-280,-266,-81,-2,15,134
259,2607,23,-47,-193,-233,-92,38,49,102
174,2449,-181,175,-47,-95,-31,67,43,43
-41,2284,-321,315,-71,-41,-41,-20,-60,-139
-278,2128,-313,123,-85,-5,-102,-108,-173,-236
-196,1986,-39,126,162,52,-119,-132,-192,-180
330,1778,207,481,576,43,-171,-168,-192,-97
918,1488,-168,546,532,-13,-250,-247,-240,-9
650,998,-902,177,211,-5,-142,-192,-226,-27
35,536,-808,628,168,-39,39,-181,-288,-193
-315,353,83,1121,65,-267,-77,-325,-423,-377
-252,367,309,11,-565,-413,-63,-279,-392,-373
42,548,300,-648,-808,-414,-49,-93,-168,-47
-97,302,221,-530,-459,-96,166,191,141,274
-437,-341,17,-336,-72,296,434,461,399,352
-598,-838,-27,175,131,322,348,437,384,254
-420,-1035,39,418,194,157,43,212,114,80
-43,-1297,69,58,-4,14,-132,31,-61,25
342,-1583,311,-219,-167,-53,-184,-8,-35,207
530,-2072,598,-318,-150,-178,-324,5,98,393
449,-2587,476,-565,-141,-239,-385,57,255,453
300,-2949,165,-661,-21,-153,-324,77,300,439
293,-3024,-39,-598,-20,27,-38,102,223,319
159,-2891,-402,-493,-58,291,496,241,167,87
-30,-2680,-644,-173,42,410,766,289,152,-145
110,-2145,-321,397,125,234,500,103,10,-229
16,-1765,-48,608,58,17,163,-124,-209,-277
-349,-1609,347,710,131,-81,-44,-312,-361,-445
-222,-1555,349,458,213,-31,-65,-288,-286,-388
252,-1697,-304,-232,64,101,85,-48,-29,-19
245,-1710,-286,-538,-135,97,106,66,98,176
-101,-1801,204,-245,-260,8,59,55,148,155
-113,-1926,469,-353,-421,-48,101,109,183,71
177,-1906,339,-734,-501,-148,9,56,35,17
147,-1989,163,-688,-309,-205,-117,1,-22,-22
90,-2246,77,-593,-273,-275,-167,57,81,80
-87,-2569,-15,-386,-196,-230,-133,109,96,91
-177,-2934,-53,-49,-32,-30,8,180,119,-9
-311,-3312,-193,55,74,88,77,206,126,-213
-549,-3393,-178,145,249,147,19,90,48,-391
-478,-3202,238,344,365,215,78,-59,-123,-432
181,-2787,346,178,180,237,243,-36,-149,-272
174,-2727,158,-190,-94,200,330,137,20,-21
-26,-2714,47,-219,-160,44,180,123,81,60
13,-2580,68,-19,-42,-30,13,0,34,30
68,-2658,1,175,50,-11,-22,-59,-22,61
147,-2988,-177,339,257,34,-50,-105,-59,45
229,-3546,-366,252,314,-27,-159,-242,-205,-38
187,-4145,-445,-147,66,-71,-185,-273,-243,-74
12,-5003,-457,-237,-54,71,33,-20,-51,-32
-222,-5679,-400,85,114,185,168,153,144,45
-346,-6034,-190,339,209,108,29,48,102,69
-209,-6476,-107,324,51,44,2,30,63,146
-186,-6730,502,58,-375,-219,-124,-30,30,255
-58,-6769,685,-124,-579,-515,-389,-229,-76,297
317,-6629,351,84,-131,-312,-331,-216,-117,287
327,-6523,311,36,166,4,-78,-58,-66,167
131,-6429,291,-255,49,82,11,41,35,173
221,-6046,207,-259,-99,-7,-91,-8,63,236
372,-5624,111,-128,-146,8,-105,-12,13,216
330,-5387,-10,165,30,37,-76,-20,38,32
-37,-5296,-38,583,235,65,-11,2,53,-249
-562,-5223,-45,670,145,8,-71,-42,-39,-317
-539,-4988,-75,107,-172,-149,-235,-193,-195,-145
11,-4581,25,-175,-216,-104,-147,-93,-76,84
285,-4498,363,52,108,180,141,128,94,91
-59,-4866,272,27,295,321,255,189,71,-238
-283,-5188,-59,-159,260,226,161,68,-83,-696
142,-5196,-147,-254,163,128,30,-18,-132,-660
610,-5107,-40,-291,-36,20,-70,-23,-76,-240
476,-5265,33,-155,-114,-37,-68,6,-30,11
-244,-5724,-123,78,-43,-15,-4,3,-69,-51
-666,-5918,3,304,233,136,96,17,-69,-99
-355,-5689,74,213,274,259,222,133,38,26
-352,-5434,-204,-146,176,189,128,74,-28,-85
-355,-5158,-329,-312,202,128,3,-48,-152,-149
-151,-4724,-272,-246,108,118,-25,-57,-113,-46
-21,-4301,-229,-252,-99,153,32,-14,-95,-28
58,-3885,0,91,-139,51,-27,-50,-123,2
83,-3479,420,348,-149,-144,-160,-133,-125,38
22,-3477,240,52,-110,-126,-101,-91,-115,7
14,-3559,-115,-194,-121,-79,-16,-5,-45,6
190,-3526,-128,-119,-116,-110,-7,35,55,68
271,-3471,14,-53,-245,-192,-70,19,110,134
131,-3382,49,-91,-352,-238,-88,12,97,107
-67,-3232,-78,-139,-321,-227,-105,0,14,62
193,-3014,-109,94,0,-9,18,71,124,149
208,-2763,143,67,51,-27,-49,-29,-1,52
-90,-2521,93,175,154,-67,-101,-120,-155,-68
-190,-2231,-60,527,420,92,-22,-55,-110,-71
62,-1791,-69,481,313,161,20,3,-48,-10
150,-1279,-255,-45,-70,26,-67,-34,-19,20
112,-426,-117,-44,-75,-52,-153,-83,-31,54
-72,413,480,482,48,-190,-301,-212,-152,-22
59,1035,445,442,-28,-259,-323,-238,-163,-106
-56,1298,-16,53,-65,-155,-168,-79,-28,-72
-366,1269,-551,-210,25,-77,-139,-46,-3,-37
-118,1350,-499,-197,159,-46,-184,-114,-91,28
99,1245,-8,-23,212,23,-91,-22,53,161
94,912,210,-264,36,128,111,146,231,226
376,747,73,-479,-246,74,156,116,150,133
567,771,-76,-153,-260,-30,135,16,41,78
224,798,-46,150,-160,-132,9,-84,-40,40
-174,464,109,102,214,18,-1,-16,46,167
10,172,540,293,484,123,64,97,132,178
300,102,340,229,368,171,159,266,294,277
209,438,-181,-319,-120,18,97,200,246,130
128,1007,-96,-517,-414,-177,-64,-4,18,-18
123,1300,215,-199,-307,-225,-290,-141,-103,-34
123,1336,425,195,-98,-225,-417,-178,-111,-32
-209,1063,186,208,152,-34,-264,0,56,-12
-297,881,-512,-22,263,209,45,241,182,76
-229,957,-815,-11,292,368,253,195,31,-45
-403,898,-435,224,338,438,342,74,-123,-255
-486,503,178,313,279,312,437,2,-196,-265
-432,309,542,-28,70,60,291,-85,-229,-221
-105,356,298,-522,-182,-103,83,-96,-148,-38
314,177,18,-574,-322,-185,19,-17,37,218
460,-146,-134,-449,-398,-185,10,18,117,372
414,-340,-283,-332,-299,-24,127,149,230,566
248,-288,-444,-113,129,165,239,297,445,726
279,47,-616,295,613,290,235,273,402,578
288,477,-625,511,548,210,43,2,5,69
-495,339,-497,347,49,-120,-370,-457,-549,-672
-783,162,-253,662,-27,-238,-504,-565,-640,-836
164,842,455,1573,515,-123,-437,-451,-483,-427
164,1053,830,2030,483,-12,-236,-261,-332,-294
-978,354,249,784,32,282,360,179,15,-320
-1216,135,-297,-390,-23,182,276,96,-79,-487
-359,331,-33,-170,243,-52,-101,-183,-265,-448
319,255,321,-433,-51,-30,12,37,71,38
404,-46,314,-923,-544,-10,200,328,423,463
163,-329,203,-1025,-763,-161,183,372,503,614
106,-657,94,-1032,-707,-121,245,433,525,700
32,-1035,138,-1105,-526,-75,228,383,508,666
-11,-1298,310,-961,-357,-132,118,228,322,451
151,-1370,116,-843,-264,-54,183,212,219,285
204,-1283,-48,-631,-291,-56,156,148,138,214
166,-1130,95,-158,-296,-146,18,-8,-38,141
84,-1061,260,119,-219,-68,59,9,-55,141
-41,-1139,162,127,-125,29,139,89,43,314
118,-953,-26,27,-140,-60,27,0,-28,488
102,-781,-246,-87,-86,-130,-128,-143,-163,288
74,-776,-129,32,106,-50,-143,-147,-197,-101
151,-946,-119,66,162,39,-23,-33,-49,-300
177,-1212,40,80,94,47,12,0,-52,-496
493,-1421,343,397,113,-50,-154,-138,-214,-538
693,-1867,374,537,86,-105,-241,-171,-222,-391
397,-2367,116,88,-71,-158,-253,-153,-152,-291
-328,-2458,-164,-96,-68,-160,-271,-203,-134,-399
-446,-2343,72,215,179,75,-96,-67,-20,-390
-158,-2212,166,232,160,174,132,72,92,-134
-42,-2074,-75,68,61,130,284,205,247,120
77,-1944,-73,-20,22,22,99,152,203,130
0,-1822,-49,35,38,-24,-72,-9,0,-34
-185,-1722,-198,16,21,24,-45,-22,-75,-50
-302,-1622,-254,-74,-23,65,-10,11,-28,90
-272,-1509,-140,-224,-69,19,-4,48,61,213
20,-1412,-114,-300,-102,-29,66,50,82,240
463,-1317,12,-154,16,38,139,-25,-37,132
491,-1240,-44,-26,126,66,55,-38,-17,43
64,-1161,-263,-69,168,86,61,36,116,-26
-267,-1087,-373,-133,114,99,111,101,209,-58
32,-1024,-312,-33,31,80,70,86,127,-14
244,-961,130,290,121,102,45,23,-48,-46
-175,-896,562,427,157,5,-3,-91,-203,-199
-331,-815,242,246,147,-39,19,-109,-198,-126
-20,-724,-341,8,182,117,157,62,17,159
120,-598,-609,5,143,202,196,163,113,331
-61,-468,-433,232,95,174,119,102,69,256
-296,299,380,-102,-121,-7,-78,-71,-25,171
-11,1008,347,-72,-22,-104,-149,-144,-71,110
49,1610,255,66,37,-46,-54,-72,-72,-68
156,2171,164,-64,-117,16,51,23,-85,-144
302,2718,113,-19,-172,-129,-94,-74,-144,-116
229,3100,235,280,-125,-315,-285,-218,-211,-155
-119,2983,138,646,-26,-278,-260,-191,-218,-181
-281,2883,-106,829,61,-215,-265,-188,-237,-157
-321,2636,-664,364,-53,-312,-391,-241,-282,-218
-169,2042,-1055,222,-98,-305,-391,-255,-295,-413
354,1479,-560,460,106,-91,-185,-125,-175,-351
273,905,3,358,151,175,94,64,18,-125
-531,534,507,193,124,313,252,226,195,32
-624,411,1038,-4,38,198,197,231,203,24
-133,381,784,-561,-94,11,137,72,18,-75
138,389,215,-898,-120,46,264,104,-9,33
313,388,-123,-833,-94,121,277,201,126,158
336,456,-186,-573,8,146,254,250,229,133
167,695,-34,-188,126,166,201,219,251,126
-243,865,115,92,141,165,129,161,236,85
-379,982,-31,-44,-8,38,-14,1,42,-59
-210,1223,-264,-276,-208,-71,-85,-72,-83,-134
-152,1556,-177,-34,-92,-92,-172,-127,-153,-140
-81,1863,216,93,19,-122,-316,-207,-210,-85
42,1828,371,-89,-38,-152,-342,-189,-178,-34
264,1516,269,-210,-81,-131,-263,-113,-69,60
483,1134,82,-212,-61,-82,-128,-23,25,178
447,771,-17,-25,172,46,-52,13,46,210
58,364,-154,186,429,240,102,118,143,201
-771,-180,-443,455,689,296,225,152,85,-20
-762,-403,-695,643,641,163,131,13,-102,-213
6,20,-612,794,483,-65,-160,-227,-251,-307
850,891,-413,567,134,-136,-240,-210,-123,-179
769,1320,-285,-39,-234,-9,79,0,84,35
-88,1407,556,-335,-675,-211,-20,-102,25,-37
-389,1770,1272,-295,-765,-332,-148,-225,-132,-120
-232,2078,784,-357,-489,-27,217,52,50,79
87,2585,97,-460,-307,113,288,186,154,240
90,3178,-26,-325,-238,49,132,93,88,209
-188,3551,206,-214,-209,-8,31,7,10,96
-150,3748,57,-204,-86,23,-25,-34,-36,15
-68,3753,-263,29,166,112,34,0,-20,10
-45,3649,-414,370,167,81,41,-16,-69,-38
326,3674,-185,631,-10,-152,-215,-261,-286,-86
277,3297,-42,431,24,-264,-372,-405,-403,-167
519,3119,389,435,208,-236,-396,-419,-388,-150
922,2978,509,405,114,-169,-255,-225,-148,146
-151,2114,-68,-78,-159,-50,15,122,185,151
-1428,1445,-592,-45,-92,197,317,405,388,-108
-1348,1248,-626,593,150,341,430,484,376,-190
-532,1751,-156,799,187,257,373,338,213,-187
23,2284,-282,323,241,350,471,218,46,-231
-305,2165,-596,65,372,413,283,15,-193,-492
-527,2344,84,328,388,195,-147,-245,-333,-624
-396,2893,418,-147,190,21,-363,-259,-210,-476
-47,3323,-96,-1250,-57,63,-174,57,163,-71
-26,3288,-373,-1351,57,71,-13,194,297,107
-84,3166,-79,-844,215,70,-13,117,169,14
67,3075,252,-607,129,89,-47,77,153,106
397,2931,414,-283,-32,41,-42,36,159,342
703,2688,386,-136,-182,60,253,156,275,585
869,2382,241,-220,-217,101,398,296,450,736
930,2229,10,-195,-122,41,263,229,445,769
675,2083,-190,68,-121,-156,18,49,191,627
432,2005,-42,212,-358,-379,-215,-120,13,496
597,2189,261,3,-580,-548,-390,-316,-175,224
1101,2624,468,129,-305,-424,-317,-272,-165,82
760,2868,611,320,22,-128,-72,-59,4,51
-902,2650,135,19,6,19,60,70,14,-168
-1435,2778,-118,-90,43,51,75,128,-21,-377
-825,3429,-103,-71,82,-10,-30,72,-102,-533
-77,4167,-110,355,286,59,-73,48,-96,-452
142,4400,-80,1085,429,139,-40,31,-84,-344
-454,4047,-149,871,16,-65,-158,-158,-223,-601
-962,3828,-311,229,-232,-62,-73,-182,-225,-766
-632,3900,-132,153,-13,212,276,69,-52,-336
31,3776,171,11,72,405,482,295,170,113
367,3328,-130,-642,-26,353,390,321,278,268
135,2719,-473,-799,-41,127,195,178,170,134
-124,2412,126,-186,-39,-167,-106,-75,-74,-145
39,2023,537,-160,-215,-262,-169,-70,-76,-109
4,1530,228,-505,-295,-109,42,168,185,159
3,1328,56,-358,-272,-163,-33,69,132,377
725,1204,-52,-189,-216,-211,-153,-101,16,534
1033,873,-217,-129,-189,-146,-111,-61,98,670
785,656,-226,-156,-142,-88,-29,48,261,770
709,704,-192,-208,-154,-77,-23,87,287,818
335,684,-77,-144,-85,-45,-39,71,268,774
-197,625,131,-107,-33,-30,-59,-27,87,453
-511,514,209,-50,0,-18,-69,-123,-116,11
-259,341,188,46,32,-25,-115,-204,-268,-240
21,-9,97,79,125,57,-41,-111,-170,-306
-90,-514,126,222,306,265,151,72,-57,-485
-416,-1000,92,290,415,344,231,103,-80,-782
-424,-1232,-192,182,410,233,109,-43,-218,-858
-329,-1416,-493,233,443,191,42,-111,-277,-671
-205,-1705,-588,334,414,230,66,-55,-250,-447
-299,-1913,-558,457,298,101,-91,-144,-290,-462
-172,-1781,-6,776,279,29,-112,-75,-162,-430
-170,-1513,560,765,141,-26,-81,15,-4,-290
-27,-1025,838,597,-92,-294,-373,-256,-201,-180
427,-544,767,207,-435,-526,-624,-494,-330,38
633,-472,262,-341,-595,-465,-572,-410,-187,288
583,-736,-420,-816,-523,-208,-290,-118,62,400
964,-841,-374,-792,-322,30,26,148,212,477
667,-861,55,-466,-101,154,262,308,349,491
-442,-1069,204,-144,135,248,323,382,400,269
-1540,-1580,55,133,430,352,284,354,306,-92
-1201,-2020,-241,109,399,304,225,260,156,-326
-337,-2343,-327,-2,173,226,221,121,-43,-381
95,-2550,-87,12,-92,103,329,-57,-249,-314
23,-2871,64,-76,-272,-103,133,-120,-238,-273
-315,-3394,-107,-38,-163,-112,110,-25,-52,-285
-403,-3670,-159,99,3,-61,179,-33,-44,-242
-450,-3834,-38,390,37,-45,41,-195,-265,-406
-386,-3716,106,807,7,-93,-110,-312,-365,-471
-319,-3471,43,792,79,-113,-183,-320,-344,-408
-194,-2955,-11,753,272,-64,-151,-232,-267,-284
113,-2257,81,506,178,-57,-49,-72,-57,31
367,-1723,31,-283,-149,-62,18,38,117,313
421,-1135,-37,-907,-261,-1,63,175,266,478
340,-537,26,-943,-208,17,24,179,286,476
259,-63,116,-735,-154,-19,-56,75,180,390
298,153,-62,-628,-223,-62,-71,40,105,374
552,270,-55,-293,-133,-33,-43,5,80,354
337,8,52,236,151,97,29,56,106,247
-180,-415,-54,282,152,169,129,89,95,114
-188,-703,-356,26,62,185,210,63,-13,-30
-20,-1003,-560,99,128,197,259,85,-14,-21
-14,-1153,-396,373,277,207,270,123,74,7
18,-1064,-137,162,120,144,224,115,71,-41
-133,-805,528,95,-160,-118,-41,-132,-186,-322
-248,-432,1113,123,-314,-383,-336,-417,-423,-446
250,19,662,-212,-378,-399,-356,-360,-347,-176
810,421,92,-423,-347,-301,-232,-212,-189,28
594,302,-383,-432,-276,-212,-137,-97,-39,103
277,70,-541,-340,-116,-65,-51,24,107,190
-335,-99,-554,-121,142,197,112,185,185,107
-562,145,-526,-72,266,292,221,294,197,41
-427,661,-370,-70,151,150,73,107,19,-21
-240,859,-267,124,189,-33,-188,-215,-243,-126
276,703,-208,210,240,-74,-210,-276,-276,-34
525,147,-181,392,316,175,83,-8,-17,123
-372,-589,123,949,429,249,189,96,93,-70
-1236,-1007,302,1031,356,92,72,-10,-6,-283
-662,-1062,-25,251,-59,-193,-169,-175,-140,-173
271,-1110,99,-166,-325,-236,-203,-160,-84,68
587,-1227,356,-506,-362,-87,14,88,178,354
624,-1220,492,-512,-256,-14,134,277,406,551
704,-1141,476,-376,-202,9,143,315,458,606
449,-1107,262,-367,-233,-59,9,157,241,356
98,-1019,322,-219,-213,-61,-5,140,205,259
-173,-924,161,-198,-143,-38,17,106,167,221
-492,-765,-151,-286,-68,-23,5,23,61,41
-399,-379,-193,-219,-54,-61,-95,-77,-46,-14
-99,78,-206,-35,-92,-80,-171,-159,-183,-21
214,419,-215,70,-150,-37,-143,-101,-107,85
148,373,-218,342,-76,-4,-136,-45,-15,148
-261,-60,-583,762,98,-7,-180,-34,-23,-95
-564,-701,-778,1071,425,57,-174,-53,-83,-538
-746,-1130,-743,808,585,90,-129,-222,-305,-914
-672,-1231,-191,68,440,0,-93,-243,-306,-820
-179,-1022,956,-140,291,-40,-45,-107,-148,-439
124,-1059,1088,-401,-66,-10,-8,-23,-77,-118
502,-1125,577,-862,-419,-2,60,92,49,223
629,-1102,259,-940,-491,-82,8,93,86,373
637,-1156,118,-659,-298,4,4,50,69,296
609,-1104,67,-374,-133,112,144,90,83,201
208,-1012,95,-134,40,173,386,213,137,152
-140,-934,-18,-2,92,123,400,235,151,179
135,-601,-148,-76,28,54,190,127,58,218
-20,-410,-225,-78,182,97,51,-6,-73,128
162,-208,-220,10,358,112,6,-46,-58,211
712,-91,-392,-370,-30,-43,-60,30,156,503
908,-182,-315,-527,-493,-228,-152,41,215,477
456,-403,183,127,-392,-233,-168,7,103,143
-72,-694,288,322,-203,-65,51,151,195,-8
-452,-1035,12,69,-135,2,125,174,229,-74
-977,-1360,-254,-27,-20,0,54,37,-14,-353
-754,-1531,-611,7,-26,-47,44,-94,-215,-487
203,-1503,-643,200,-25,-71,-21,-112,-153,-130
746,-1244,-330,346,97,33,46,40,82,315
388,-884,233,511,272,70,36,39,64,414
-216,-468,795,534,302,45,-20,-55,-62,208
-179,97,527,372,302,135,105,35,5,78
26,595,50,8,117,155,233,106,19,38
-172,944,-55,-34,41,207,273,167,-10,-135
-515,1261,-163,-103,-40,207,249,193,18,-358
-795,1443,341,156,93,226,200,134,-59,-591
-782,1509,639,325,170,174,123,50,-144,-569
-488,1466,331,-63,-107,-69,-71,-68,-152,-304
-94,1248,-68,-335,-264,-232,-226,-146,-162,-195
252,879,-59,-24,-93,-224,-324,-261,-260,-286
321,259,262,285,109,-146,-333,-318,-336,-394
564,-552,313,117,145,7,-122,-88,-115,-198
537,-1322,-53,-223,75,56,-21,27,46,-8
-163,-2066,-169,-49,81,-11,-90,-87,-37,-161
-416,-2747,72,205,111,-76,-120,-206,-225,-332
268,-3169,390,-15,-64,-245,-241,-327,-353,-218
728,-3684,92,-322,14,-72,-52,-115,-100,97
35,-4463,-335,-337,325,317,351,283,237,238
-719,-4804,-216,-15,424,458,479,411,346,176
-235,-4434,146,632,349,259,262,239,186,122
-56,-3965,-31,455,-6,113,174,230,194,175
-424,-3710,-519,-357,-358,-33,35,130,133,142
-365,-3470,-748,-390,-262,-143,-183,-116,-77,-25
-165,-3217,-323,416,196,-151,-317,-254,-183,-67
32,-2890,155,778,412,-216,-397,-285,-183,47
11,-2910,160,141,99,-158,-217,-104,27,320
-340,-3410,138,-451,-235,19,109,160,264,483
-40,-3578,414,-210,57,241,325,356,400,585
393,-3469,440,119,228,281,358,420,432,463
229,-3332,-6,-392,-216,69,216,333,327,292
-312,-3189,-387,-772,-549,-106,28,177,142,-5
-295,-2996,-248,-375,-425,-121,-82,67,28,-129
215,-2792,14,-50,-278,-88,-67,7,0,-30
477,-2602,162,104,-229,-38,52,-81,-99,-36
329,-2425,1,318,-104,16,20,-210,-238,-124
-230,-2294,-212,448,129,155,-42,-307,-436,-436
-596,-2105,113,167,165,179,27,-226,-411,-549
-259,-1714,525,-244,12,18,0,-155,-261,-255
-27,-1324,444,-246,11,-106,-129,-198,-210,-40
-92,-1272,-129,-149,116,-55,-127,-149,-170,-79
262,-1095,-649,-383,54,29,-30,-41,-92,-113
583,-909,-762,-567,-70,129,113,131,40,28
381,-1095,-485,-171,-12,220,258,359,285,168
-97,-1298,106,258,74,115,116,251,272,52
-658,-1361,564,241,16,-75,-103,0,60,-132
-520,-1288,320,103,-13,-62,8,41,78,83
-56,-1183,-75,183,91,59,222,275,343,550
303,-1009,2,358,128,-107,-7,154,292,705
407,-677,277,408,121,-283,-280,-100,52,468
561,-54,461,-68,-34,-246,-202,-58,26,320
467,680,369,-358,-145,-184,-94,14,37,292
81,1358,84,-181,-44,-76,26,112,103,341
-80,2053,-291,-254,11,1,82,136,115,345
-94,2794,-508,-488,-113,-39,26,111,134,196
-184,3644,-473,-268,-164,-171,-133,-14,50,-110
-170,4557,-280,426,96,-153,-224,-138,-101,-249
197,5353,-74,726,171,-93,-206,-213,-181,-152
366,5808,372,746,237,7,-166,-240,-216,-109
-15,5900,614,384,218,18,-146,-196,-198,-82
-58,5884,546,-164,-46,-111,-152,-150,-114,127
308,5734,450,-302,-199,-169,-112,-69,-18,348
440,5321,25,-409,-290,-113,50,100,123,472
692,5134,-109,-391,-240,-7,174,230,254,605
29,4931,-13,-206,-141,-10,94,155,196,265
-298,4818,-72,-45,-51,-35,-31,21,30,-179
-329,4735,-15,51,46,-41,-68,-33,-46,-383
7,4626,-42,139,133,-16,14,35,48,-231
230,4549,-118,473,225,57,67,59,74,-164
-111,4198,-376,470,174,62,11,-34,-67,-335
-280,3814,-730,9,106,41,-51,-88,-168,-366
-208,3817,-405,337,526,102,-71,-82,-197,-406
-138,3906,3,581,780,129,-89,-63,-165,-355
-70,3733,-120,-72,262,17,-109,-53,-99,-196
5,3332,-116,-482,-308,-99,-171,-78,-55,-36
241,2943,117,-267,-371,14,-75,58,120,325
301,2440,152,-178,-280,165,56,136,163,566
-107,1686,115,-19,-169,113,96,68,33,448
-393,958,148,362,80,-1,66,-9,-58,78
-329,374,356,458,155,-38,-16,-63,-120,-400
-239,-152,293,297,25,-16,-21,-67,-182,-713
-612,-759,-86,69,-36,44,81,-36,-163,-662
-454,-831,-132,156,6,73,182,31,-7,-243
136,-557,-155,-36,-37,114,233,147,187,150
553,-260,-342,-388,16,246,243,138,184,235
452,-87,-427,-453,131,294,209,100,150,146
250,130,-407,-143,217,204,116,7,57,-11
244,524,-154,16,14,-75,-196,-264,-172,68
-31,488,-344,-118,-291,-386,-459,-458,-281,356
-54,421,-233,-185,-366,-372,-319,-273,-54,748
159,562,743,12,-156,-174,-122,-46,116,756
259,722,854,-126,-150,18,108,253,398,627
219,579,277,-319,-329,61,168,356,442,362
80,355,3,-205,-255,-47,-18,83,95,-91
77,145,-135,-266,-176,-42,-37,30,-24,-416
4,-68,-234,-301,-154,-65,-102,31,-46,-575
-164,-380,-90,41,86,1,-70,-6,-93,-787
-411,-728,278,420,255,63,-51,-113,-237,-937
-310,-810,382,229,226,109,151,-112,-237,-636
23,-613,81,-150,122,149,275,24,29,11
201,-320,-115,-105,-74,-30,75,-2,89,104
174,-14,25,263,-122,-180,-101,-107,18,76
54,130,203,748,34,-214,-183,-192,-82,91
140,337,270,740,93,-156,-143,-169,-55,258
-94,587,130,152,7,-107,-108,-121,-11,414
-201,951,-124,-456,-138,-88,-83,-107,-8,350
446,1121,-259,-693,-269,-189,-186,-153,-108,154
1144,1054,-229,-633,-223,-123,-153,-40,0,101
809,815,-242,-332,153,134,21,188,186,52
-627,12,-435,97,538,459,327,355,248,-256
-1578,-837,-707,-14,417,498,456,259,107,-735
-971,-982,-643,-13,240,323,220,79,-22,-770
-199,-699,25,573,219,143,-13,-49,-109,-562
-73,-524,731,776,2,-128,-215,-149,-154,-419
-145,-530,598,651,-123,-206,-156,-159,-129,-246
-191,-429,137,685,68,0,95,-117,-187,-221
-21,-297,-174,481,128,83,63,-173,-259,-248
263,65,0,83,166,112,20,-166,-220,-184
17,256,-12,-241,198,237,143,-47,-67,-172
-340,216,-368,-425,211,325,247,83,24,-170
-549,182,-375,-468,181,227,144,41,-39,-225
-382,248,-61,-518,-130,105,148,122,38,-109
-195,362,131,-385,-390,-1,161,196,115,11
-341,173,144,252,-236,-248,-126,-90,-148,-208
-161,71,298,367,-31,-246,-150,-84,-95,-40
345,190,283,-172,-35,-38,92,194,213,368
523,50,268,-484,-48,-19,116,204,253,428
540,-285,219,-542,-137,-154,-77,21,97,356
524,-1065,-207,-417,-259,-117,-36,31,170,482
651,-1415,-25,7,-187,-148,-96,39,224,606
481,-1674,-96,32,-175,-140,-131,54,245,788
458,-1773,-144,-111,-159,-104,-59,91,265,866
128,-1844,-130,-55,-77,-8,164,189,323,734
-733,-1849,-68,-49,-1,103,355,237,284,355
-1009,-1508,276,-14,6,111,224,155,140,-77
-623,-925,389,90,77,162,169,140,55,-419
-88,-369,209,122,84,128,116,86,-45,-703
387,145,91,125,1,-38,-50,-65,-162,-760
192,277,47,194,-49,-165,-265,-253,-267,-606
107,232,-49,147,-44,-120,-234,-248,-249,-432
325,195,-22,-31,-88,-84,-126,-168,-136,-273
-41,-322,2,-152,-215,-138,-40,-52,7,-118
-293,-856,-83,5,-159,-77,80,11,34,-41
-218,-941,96,398,135,-25,-47,-205,-245,-242
-134,-999,272,420,275,14,-97,-261,-310,-291
-33,-1218,198,190,309,112,12,-111,-146,-174
-17,-1404,-65,-84,205,117,72,22,-8,-38
-35,-1323,-160,-166,118,105,61,2,-43,9
138,-1028,-74,-65,83,-20,-82,-89,-45,77
428,-580,46,-100,-76,-180,-218,-135,-17,189
554,-300,-106,-193,-125,-137,-150,-17,97,344
319,-119,-329,-229,-124,-51,-56,94,201,486
44,292,-358,-173,-57,-11,-52,99,195,532
95,950,-347,-144,-26,11,-91,47,113,390
21,1520,-166,-53,47,63,-117,-23,-27,34
-318,1813,62,267,345,175,-44,-10,-59,-202
-255,1956,-136,659,632,267,94,53,17,-66
-8,2002,-368,672,505,190,155,69,65,128
-281,1878,-639,169,82,19,42,-64,-104,-71
-543,1905,-211,29,-154,-120,-66,-162,-256,-304
-242,2181,727,181,-215,-201,-109,-131,-149,-203
286,2322,704,-369,-370,-143,17,61,104,98
455,2185,133,-569,-234,-20,165,189,200,162
416,2110,-221,-292,29,86,211,204,199,166
317,2159,-71,-111,-33,-22,34,13,43,86
132,2290,344,57,-227,-195,-202,-202,-174,-77
30,2653,496,219,-210,-203,-228,-169,-126,6
-47,3058,162,53,-127,-71,-99,-42,-27,147
-421,3366,-2,-122,-38,65,18,94,59,133
-644,3655,1,-204,-17,141,153,252,223,98
-401,4034,-9,-251,-79,124,169,266,179,-102
148,4413,-30,-288,-208,-46,-18,62,-64,-269
578,4499,-86,-238,-240,-150,-196,-200,-265,-332
892,4400,-146,-29,-128,-106,-227,-326,-348,-217
694,3811,-404,71,14,-61,-194,-312,-357,-137
58,2797,-676,454,197,-16,-125,-176,-186,-1
-401,2073,-318,851,233,12,-14,10,73,239
-541,1689,283,582,102,27,20,28,87,296
-213,1343,480,80,100,27,-16,-42,-8,224
163,780,133,-250,49,54,85,48,72,227
49,425,-86,-289,29,92,172,154,150,102
-188,486,114,-312,-41,-25,60,42,10,-264
44,708,251,-408,-210,-189,-111,-151,-188,-482
144,978,196,-333,-285,-241,-151,-148,-156,-162
14,1094,-17,3,-147,-248,-186,-153,-113,34
284,1203,-199,171,237,14,-2,-11,29,43
475,1438,-429,-66,387,282,232,182,160,-44
-222,1523,-315,-154,189,268,252,188,137,-347
-848,1566,399,181,123,212,233,185,124,-505
-463,1723,481,72,-76,125,187,190,129,-288
72,1565,197,-187,-174,63,146,151,80,-3
246,1189,81,7,-140,-27,50,41,-22,113
104,602,5,78,-155,-92,5,15,-27,61
-117,13,-3,-16,-209,-168,-67,-18,-53,-9
-59,-282,-123,-66,-116,-143,-96,-18,-41,51
4,-446,30,152,116,44,48,99,51,126
-305,-600,184,377,269,191,180,172,95,12
-247,-668,-50,216,131,112,118,89,34,-105
96,-672,-324,134,65,2,-1,-14,-39,-34
-2,-661,-370,382,316,63,24,-8,-32,-2
-102,-535,-182,309,297,27,18,-20,-8,3
58,-426,-58,-376,-150,-123,-35,-104,-54,12
230,-172,92,-488,-294,-125,-21,-115,-59,10
-20,52,118,-255,-67,24,-2,-29,3,43
-480,154,138,-334,28,92,-22,3,12,39
-400,12,0,-222,132,152,9,58,47,83
-150,-221,-69,37,153,136,-46,68,97,135
112,-395,-124,114,114,7,-235,-90,5,143
148,-832,-364,210,109,-121,-319,-225,-92,195
235,-1214,-332,569,255,-155,-184,-278,-177,243
209,-1373,-270,328,74,-203,-90,-255,-188,317
247,-1358,22,-92,-333,-280,-116,-142,-72,473
342,-1428,343,30,-320,-265,-122,-19,56,496
281,-1433,101,64,-32,-166,-147,-12,35,209
116,-1414,-325,-242,236,160,84,148,120,-91
12,-1291,-316,-216,440,465,410,393,301,-171
-124,-1267,170,-25,285,241,257,270,191,-128
-391,-1423,401,-413,-221,-171,-60,-4,-61,-220
-473,-1103,222,-585,-414,-236,-97,-30,-83,-264
82,-385,304,-129,-347,-301,-231,-107,-135,-189
677,109,478,162,-275,-157,-127,17,1,-48
646,62,461,504,-76,132,121,211,215,-3
260,-260,105,632,3,193,185,166,120,-52
-493,-789,-325,370,144,184,186,-25,-127,-249
-887,-1316,-311,576,500,276,98,-85,-211,-345
-570,-1600,13,838,850,312,34,-86,-203,-245
-181,-1916,67,261,545,151,51,-68,-123,-123
-57,-2040,-155,-716,-185,-50,175,45,43,-39
144,-1815,14,-843,-516,-221,130,101,135,29
375,-1725,326,-634,-523,-192,125,181,209,188
407,-1645,196,-698,-532,-75,205,212,212,260
309,-1441,116,-624,-407,29,245,179,188,318
65,-1106,170,-236,-171,53,139,91,112,332
-88,-694,136,47,-89,-36,-33,-46,-11,278
20,39,-129,140,-135,-185,-208,-194,-112,161
384,921,-630,111,-124,-168,-224,-212,-109,133
539,1460,-922,59,2,-82,-215,-222,-154,115
211,1815,-653,341,199,-25,-222,-258,-215,-42
-234,2046,370,565,246,19,-171,-235,-209,-177
-328,2081,794,-134,-67,27,-62,-131,-113,-111
-71,2078,443,-590,-130,54,10,-53,-31,13
84,1843,284,-311,79,55,-11,-26,-5,67
-13,1341,215,2,74,-7,-28,32,58,112
-190,648,-38,150,-107,-77,-3,84,112,167
-359,172,-182,160,-55,-109,-57,-10,-23,-8
-148,-110,-148,218,313,67,5,-17,-40,-34
-9,-144,-11,12,277,180,90,59,40,-18
240,-89,-26,-578,-160,77,111,143,177,77
596,42,-85,-551,-357,-74,33,137,190,173
392,12,-48,37,-170,-106,-38,61,103,81
-101,-52,128,349,73,44,62,98,82,12
-219,122,311,268,66,98,104,111,78,19
126,371,136,121,50,103,101,124,110,96
300,495,-208,-68,33,95,86,126,105,205
-132,454,-376,-181,7,64,38,71,84,208
-479,300,21,-43,-22,-2,-52,-33,8,87
-180,205,243,-187,-165,-122,-159,-157,-115,-63
419,-46,141,-251,-177,-128,-141,-152,-158,-74
443,-538,50,83,-151,-139,-119,-126,-118,60
-305,-1072,-223,145,-201,-176,-132,-106,-41,151
-903,-1590,-416,-65,-174,-109,-47,-9,34,145
-732,-1627,-449,-60,-42,-23,25,73,99,217
-252,-1405,-118,58,120,101,104,146,144,165
49,-1138,213,-4,121,117,93,92,61,-131
139,-869,250,-91,90,111,82,40,3,-297
120,-654,47,-160,36,79,63,21,-29,-245
124,-329,-61,-72,13,41,31,-1,-69,-130
5,43,-27,131,103,64,27,-18,-86,-83
-167,447,10,152,112,12,-45,-81,-115,-26
36,1007,-20,169,156,-23,-103,-126,-138,23
395,1525,-138,280,372,91,-52,-102,-115,13
483,1771,-96,542,631,277,114,55,39,76
186,1671,-297,109,338,238,185,188,192,172
-295,1478,-470,-339,-257,-34,-22,-14,-13,-87
-395,1435,-11,40,-273,-85,-79,-110,-143,-278
-478,1241,255,83,-210,29,65,24,-22,-334
-245,1069,-33,-258,-184,120,169,132,57,-257
248,1005,-289,-324,-134,105,192,199,162,39
346,908,-291,179,61,19,52,66,133,173
468,943,125,784,216,-96,-129,-126,5,135
343,928,528,586,15,-231,-247,-219,-74,57
-91,931,576,-83,-234,-351,-331,-345,-210,-127
-211,1043,455,-379,-189,-223,-224,-271,-204,-305
112,1130,203,-415,-84,-2,10,-35,-50,-302
430,1187,-150,-452,-12,101,163,114,36,-251
380,1226,-388,-301,36,113,165,167,102,-62
-32,1445,-451,111,130,120,89,130,108,109
-372,1519,-415,439,335,196,62,76,83,151
-486,1336,-197,486,366,195,0,-33,-10,121
-470,1157,75,102,171,109,-57,-97,-94,94
-213,1035,306,23,109,-16,-163,-170,-210,-38
53,869,571,294,136,-125,-185,-159,-193,-82
222,687,546,-16,-207,-136,-51,17,20,18
249,365,264,-443,-433,-99,46,130,129,-58
194,1,18,-480,-340,-65,65,142,105,-128
101,-313,-4,-293,-148,24,129,156,106,-166
-42,-561,-7,-78,-22,68,145,127,43,-302
-85,-605,-203,-1,-3,16,75,82,-14,-248
-18,-589,-433,-38,28,-5,39,72,-23,-71
-5,-427,-521,-36,60,-18,-30,21,-33,-37
262,-156,-193,129,42,-87,-196,-132,-138,-203
359,-49,448,292,6,-166,-267,-225,-234,-323
17,-66,471,-60,-98,-104,-179,-150,-170,-179
-161,-148,83,-134,13,138,22,38,36,69
-225,-321,-267,451,313,333,231,219,232,269
-177,-569,-594,704,339,264,257,193,200,268
-135,-939,-491,700,149,-13,15,-67,-46,47
-96,-1472,21,595,-100,-307,-361,-367,-301,-190
-9,-1997,460,137,-63,-230,-303,-270,-208,-77
-156,-2425,521,-334,31,-30,-78,17,126,225
-287,-2898,48,-459,125,74,1,195,310,404
79,-3173,-454,-325,78,-33,-97,123,236,402
176,-3560,-543,-253,-107,-243,-212,-29,122,414
-195,-3869,-230,-126,-253,-442,-407,-241,-79,276
-179,-3825,35,-158,-297,-422,-391,-235,-135,258
70,-3746,93,-262,-103,-119,-100,13,87,626
254,-3499,153,-235,46,80,70,141,200,797
348,-3069,319,-54,-22,139,123,114,93,381
53,-2839,389,-165,-149,345,265,146,7,-364
-224,-2548,307,-316,-102,540,395,236,-12,-935
-129,-2140,108,-399,-178,405,481,364,164,-725
34,-1801,61,-194,-221,78,275,203,127,-400
394,-1592,62,5,-120,4,84,34,-38,-283
408,-1719,-65,229,132,87,70,19,-65,-190
161,-2028,-251,470,285,87,5,-30,-116,-198
-32,-2223,-334,425,254,7,-135,-149,-219,-330
-257,-2409,-41,58,15,-103,-187,-220,-188,-379
-467,-2544,443,-213,-247,-215,-255,-258,-185,-355
-298,-2666,235,-196,-77,-22,-49,-110,-124,-177
-13,-2672,-85,30,233,220,298,89,41,55
9,-2580,-323,242,378,387,524,218,164,142
-49,-2539,-758,-10,304,456,679,299,226,158
-477,-2406,-910,-214,92,129,222,5,-16,-61
-459,-1700,3,241,-18,-323,-308,-397,-346,-232
382,-781,599,379,-154,-574,-535,-493,-353,-50
908,-218,705,-206,-352,-445,-336,-244,-74,269
756,-187,495,-485,-396,-194,-45,31,157,416
406,-158,199,-372,-187,60,188,230,331,479
188,-79,58,-358,-23,207,302,319,397,495
-161,-109,-38,-292,29,154,189,223,270,278
-239,-35,-2,-1,146,120,106,107,107,113
-184,36,-111,179,229,127,106,115,120,264
-166,89,-309,304,431,59,-4,-21,28,302
-286,22,-314,630,644,65,-58,-126,-103,146
-146,187,-381,332,391,110,20,-74,-136,-159
-118,559,-650,-287,-134,-26,-56,-120,-183,-331
-98,1139,-310,-116,-206,-97,-98,-105,-153,-193
196,1736,380,87,-315,-181,-122,-67,-62,-6
379,2250,645,-159,-475,-225,-99,-11,4,137
139,2574,570,-201,-281,-49,90,172,154,279
-126,2980,522,-15,-35,82,171,250,229,268
-351,3424,395,69,55,102,108,186,150,59
-375,3919,118,0,-37,22,-4,72,-8,-223
-106,4403,103,-66,-159,-103,-162,-100,-172,-369
196,4701,111,-183,-274,-246,-327,-307,-400,-464
586,4626,76,-106,-250,-259,-341,-349,-405,-396
267,4017,-95,127,-89,-118,-169,-158,-173,-170
-155,3345,-317,196,-29,-38,-27,-10,-14,-25
238,2876,-314,218,108,98,147,154,118,34
253,2471,-130,455,342,210,240,207,136,-39
263,2079,183,676,485,224,188,92,13,-43
187,1589,123,556,380,210,185,113,43,78
-573,1022,-317,243,170,89,91,88,54,31
-946,915,-317,29,-11,-91,-107,-72,-75,-178
-410,1288,32,-114,-136,-205,-217,-146,-79,-51
138,1586,112,-352,-240,-168,-168,-57,75,184
140,1736,32,-428,-142,0,-34,33,120,164
-17,1845,-143,-500,-9,172,144,200,255,207
-81,2137,-309,-598,-20,210,191,273,351,222
-97,2566,-246,-408,10,146,91,153,227,81
-109,2935,-78,-65,150,117,-15,-15,0,-69
-119,3184,172,258,206,54,-90,-147,-150,-141
83,3348,204,232,-56,-89,-159,-180,-185,-76
358,3157,-193,130,-259,-195,-215,-189,-181,-54
763,2851,-369,176,-149,-149,-133,-126,-72,6
400,2441,-184,266,105,-12,-21,-37,36,32
-265,2080,297,143,125,48,51,6,30,-45
-17,2020,598,-219,-113,-147,-96,-154,-123,-10
687,2086,616,-333,-210,-222,-162,-184,-142,267
607,1765,289,-211,-107,-71,-22,-16,-18,382
247,1471,-27,-32,47,113,168,188,148,297
-70,1406,-308,63,124,148,199,231,187,136
-696,1400,-486,135,272,136,101,119,45,11
-632,1647,-637,208,553,160,16,3,-48,102
-337,1924,-728,78,525,204,111,52,3,234
-526,2209,-753,-162,71,74,64,20,-75,-95
-550,2562,-143,358,-66,-88,-143,-166,-286,-636
-347,2855,703,894,154,-72,-139,-143,-225,-602
-310,2722,648,548,-13,-89,-131,-73,-117,-397
-124,1932,211,103,-283,-41,-53,49,53,-183
-35,-914,301,279,-203,29,-57,23,28,-108
79,-3038,381,394,-68,17,-176,-160,-140,-84
82,-3398,-107,-244,-189,26,-154,-157,-128,-77
42,-3503,-350,-502,-131,119,60,-8,-53,-92
-25,-3478,112,-143,88,90,73,-10,-85,-94
10,-3425,700,-287,3,-67,-16,-75,-64,46
37,-3690,347,-661,-82,-81,111,72,154,318
-15,-3884,-249,-538,5,-28,197,217,325,417
201,-3482,-395,-384,-87,-87,168,174,282,384
128,-3077,-92,-93,-181,-180,7,-12,75,235
-5,-3485,278,295,-124,-162,-81,-97,0,98
-3,-4363,347,290,-73,-53,19,7,75,-2
288,-3835,184,90,-73,-26,51,73,134,79
400,-3118,-20,-156,-80,-49,21,57,134,219
323,-2639,-174,-310,-59,-88,-16,21,94,260
320,-2333,-200,-221,45,-53,-25,4,45,137
202,-2181,-202,-151,127,29,13,19,24,45
-68,-2242,-173,-14,240,154,94,58,73,12
-159,-2232,-141,268,276,195,93,97,115,-52
-26,-2214,-155,426,121,157,108,149,171,-143
-29,-2309,-162,507,-40,-28,29,53,28,-377
-121,-2332,-76,451,8,-188,-90,-23,-84,-465
-178,-2188,428,127,71,-223,-181,-44,-93,-342
-64,-2015,434,-95,-45,-206,-238,-32,-76,-223
67,-1978,164,-176,-95,-145,-223,-93,-147,-197
55,-1905,-165,-330,-74,-14,-127,-145,-207,-199
233,-1589,-504,-194,139,160,-41,-109,-150,-65
208,-1448,-624,-93,161,245,120,-17,-60,33
-286,-1284,-343,-4,-33,104,116,27,-59,-73
-674,-998,346,197,-141,-31,72,-26,-162,-340
-489,-679,648,71,-240,-79,95,-7,-143,-238
-78,-355,578,-66,-147,-12,74,32,-44,65
138,-288,412,-220,-1,165,180,94,24,189
105,-571,64,-395,-22,194,297,152,75,229
-63,-870,-209,-435,-205,-30,105,0,-23,174
-124,-1003,-228,-362,-291,-200,-85,-132,-107,107
329,-1007,-107,-231,-214,-186,-48,-71,61,206
745,-1102,-116,-143,-94,-103,7,26,171,322
406,-1404,-230,-84,34,31,116,152,228,414
153,-1443,-257,10,204,64,82,131,207,430
506,-1085,-260,287,501,92,-8,56,158,404
543,-697,-485,247,512,120,-24,32,156,382
212,-324,-633,-97,29,-5,-41,33,159,396
345,260,-123,141,-173,-157,-126,-33,76,381
557,954,262,230,-188,-165,-121,-37,11,305
342,1486,166,-338,-368,-119,-17,29,41,257
-162,1985,-9,-406,-318,-87,5,1,-30,3
-500,2360,247,6,-36,5,-8,-73,-155,-328
-801,2171,497,341,125,99,26,-49,-180,-542
-632,2006,355,328,195,177,91,45,-84,-427
7,1958,96,73,178,201,153,149,29,-282
-347,1515,0,93,210,195,190,189,53,-445
-623,1172,186,270,212,132,133,133,28,-386
-232,918,95,25,-28,16,45,71,23,-62
-115,536,-142,-213,-187,-34,8,48,33,160
-207,280,-166,-60,-94,-5,5,37,22,136
-234,174,-104,88,-24,0,-25,-26,-41,-113
-131,98,-11,38,-72,-22,-57,-88,-102,-205
-40,180,-6,-161,-172,-88,-99,-116,-127,-135
133,495,-124,-252,-205,-158,-151,-146,-156,-48
390,810,-88,-128,-166,-222,-223,-239,-212,-15
478,944,36,49,-86,-208,-233,-266,-228,-46
634,1122,256,205,16,-148,-214,-256,-259,-101
741,1197,417,377,179,-18,-123,-197,-217,-146
16,737,124,469,417,155,2,-71,-91,-138
-1198,223,-328,546,513,238,103,39,46,-146
-1370,184,-481,398,262,174,121,73,81,-33
-770,233,-103,623,-29,-135,-163,-167,-113,42
-130,212,319,529,-223,-379,-361,-307,-193,93
339,51,386,-214,-302,-231,-121,-51,63,217
339,-258,177,-719,-245,-31,92,157,232,239
122,-410,-66,-751,-100,49,147,162,210,87
-24,-373,-195,-620,-46,72,160,133,147,-26
124,190,-210,-485,-72,98,188,170,172,72
259,873,-66,-120,-7,98,174,162,179,142
47,1136,-5,226,52,33,35,31,47,24
5,1455,99,282,38,34,-7,-27,-30,-2
266,1702,7,-88,-1,62,54,52,11,134
242,1838,13,-223,-27,49,66,86,75,249
284,2151,-2,74,36,63,41,42,23,243
725,2696,0,234,154,114,45,7,-17,251
1001,2882,56,379,245,64,13,-33,-8,245
174,2414,5,269,108,-60,-67,-83,-89,13
-756,1476,-59,-66,28,-50,-34,0,-74,-169
-888,770,-1,-198,15,22,69,91,14,-194
-486,676,5,-93,-29,17,72,51,30,-73
-70,666,-102,2,-57,-5,14,-17,-33,15
230,435,-315,-60,-30,48,67,34,-7,-10
35,76,-365,-63,18,72,109,80,6,-202
-493,-220,-26,217,109,-16,-25,-44,-103,-328
-498,-110,509,544,329,-51,-119,-117,-186,-296
-92,42,529,366,323,-25,-42,-15,-62,-96
156,210,109,-133,35,-103,-88,-30,-34,25
21,336,-238,-57,-6,-101,-146,-127,-124,22
527,1366,548,47,135,14,-70,16,150,503
90,939,282,-405,-201,-88,-62,58,177,538
-514,167,150,-493,-332,-94,-23,177,270,470
-773,-367,188,-112,-208,-25,9,265,405,592
-312,-496,119,-118,-249,-38,-46,137,215,442
99,-619,-21,-214,-229,-63,-126,9,15,-28
134,-690,-59,-39,-40,8,-111,-15,-26,-471
166,-718,-197,-1,15,123,11,69,14,-496
16,-790,-294,57,-36,144,138,128,70,-330
-219,-652,-106,205,-13,76,205,28,-40,-351
-358,-362,-146,19,39,-63,80,-130,-204,-424
-192,54,-146,-138,103,-57,109,-150,-223,-350
67,460,197,-41,44,-40,123,-148,-217,-315
176,779,281,-21,-95,-8,45,-146,-199,-329
70,1124,255,59,-141,-12,-33,-178,-201,-301
-115,1463,170,116,-108,-36,-93,-183,-170,-172
-45,1565,156,132,2,67,19,-43,-27,43
150,1348,92,68,-30,145,113,81,104,226
331,981,-51,172,-59,100,96,95,127,254
296,371,-147,206,-118,-55,-9,10,-5,83
19,-94,-240,143,-128,-141,-85,-72,-70,-18
-235,-421,-516,-87,58,3,17,12,6,23
-372,-670,-557,-132,267,146,126,121,97,42
-163,-859,-123,114,248,177,199,186,172,31
91,-988,109,207,9,4,68,64,90,6
124,-1010,268,94,-128,-135,-52,-32,16,73
87,-908,291,-81,-80,-91,-11,30,88,253
253,-586,136,-170,0,1,31,71,179,380
416,-327,-68,-80,82,90,76,114,186,314
233,-174,-281,-144,30,65,44,85,111,215
-13,71,-410,-319,-33,-65,-118,-73,-38,87
-115,427,-271,-258,107,-9,-105,-85,-69,-41
3,830,-64,22,233,67,-37,-30,-33,-60
15,943,-134,99,92,63,-20,17,-22,-63
-104,806,-454,-280,-293,-49,-47,3,-39,48
38,650,-314,-241,-430,-199,-189,-129,-120,140
190,473,295,162,-221,-164,-196,-182,-203,34
203,177,645,165,15,26,19,-51,-110,-147
115,-200,320,52,210,145,135,68,6,-220
54,-579,-225,-98,264,106,104,99,57,-211
233,-738,-172,-19,155,-19,-61,-25,-60,-247
464,-567,-46,139,101,-41,-188,-147,-161,-209
371,94,-79,221,33,7,-155,-127,-131,-174
68,544,302,355,-26,-115,-203,-179,-170,-182
-189,509,485,409,56,-85,-163,-160,-158,-191
-634,269,459,259,58,3,-112,-98,-72,-228
-401,411,247,-61,56,68,-67,-62,-6,-73
314,900,22,90,298,199,56,-9,54,93
451,1309,-226,52,299,238,109,24,-14,157
33,1369,-510,-666,-154,44,-20,-54,-88,160
36,1059,-523,-885,-405,-45,-43,-20,-10,220
154,819,-97,-264,-182,-9,10,71,92,256
-52,510,148,177,-106,12,20,106,128,175
-682,-15,35,224,-212,-21,40,154,194,214
-437,-369,-67,227,-230,-62,63,171,252,461
408,-422,-116,102,-360,-215,-30,70,180,587
653,-248,113,192,-260,-189,-58,37,116,441
567,-72,196,110,-40,-58,-11,70,79,176
370,-47,-90,-142,219,160,127,176,118,-147
-127,-160,-158,-77,340,299,211,220,120,-564
-502,74,90,83,188,194,100,79,-21,-747
-636,565,338,94,66,102,38,0,-126,-672
-598,909,103,210,142,40,14,2,-107,-490
-295,1430,-163,212,80,38,45,17,-73,-277
-221,1832,-100,118,-107,-10,38,3,-94,-259
-126,2232,120,-184,-297,-148,-64,-28,-104,-221
7,2451,110,-450,-260,-75,0,23,-40,-93
29,1834,100,-245,-43,83,142,77,3,-13
22,1250,221,-60,40,63,112,15,-14,-18
-77,864,85,-85,-8,-44,-39,-101,-111,-83
-76,451,2,-197,-92,-121,-125,-136,-116,-80
-14,95,-3,-243,-157,-109,-92,-116,-98,-43
0,-252,-64,-148,-148,-59,-9,-45,-98,-13
69,-549,-155,6,-38,-2,43,13,-31,60
104,-731,-181,69,69,96,204,106,89,170
85,-739,-135,6,102,120,226,126,153,218
100,-651,-278,-101,54,50,77,67,111,207
260,-425,-211,-157,19,25,46,81,134,253
204,-198,-74,-122,20,11,46,114,167,235
-104,44,-29,1,87,50,58,108,129,119
-21,502,-110,134,139,19,-25,-10,-7,-11
326,983,-73,397,201,-48,-140,-141,-116,-84
324,1498,-50,573,311,-101,-201,-225,-189,-119
72,1605,-70,497,271,-236,-302,-293,-223,-142
0,1446,-10,128,-66,-338,-349,-299,-205,-85
226,1328,-4,-148,-387,-411,-392,-349,-242,-53
199,1070,-46,-199,-376,-314,-304,-274,-184,32
-114,636,18,-364,-209,-20,-8,-1,52,124
8,235,-21,-351,20,295,290,274,290,236
560,232,-70,-249,124,342,425,376,375,313
172,357,186,-34,-103,-65,98,81,87,138
-126,468,531,328,-225,-292,-169,-145,-109,69
16,498,469,289,-100,-136,-66,-25,19,203
-121,412,120,-25,40,23,73,134,177,296
-275,456,-84,-53,172,170,198,271,303,323
-226,896,-45,-12,199,233,217,267,258,218
-267,1301,104,-18,182,180,150,168,76,-84
-327,1536,50,123,299,130,64,86,5,-294
-176,1764,-76,124,266,93,30,58,19,-196
-263,1706,-203,-184,7,69,27,-31,-65,-216
-345,1536,-81,-144,-64,99,-28,-174,-234,-325
-82,1448,150,156,76,192,18,-131,-152,-165
137,1095,104,41,16,203,102,10,23,53
99,455,-154,-322,-118,61,38,0,9,72
59,-82,-220,-218,47,-51,-60,-57,-73,28
1,-486,0,275,328,-101,-152,-91,-124,0
35,-766,167,600,318,-93,-146,-61,-55,41
112,-949,201,593,96,-123,-109,-111,-83,57
103,-1064,47,358,-241,-324,-234,-302,-279,-77
416,-954,18,286,-157,-282,-193,-313,-313,-84
558,-846,-123,-138,-26,-45,43,-68,-53,99
69,-995,-426,-886,-151,79,231,168,196,215
-391,-924,-377,-968,-262,-68,38,60,120,159
-157,-342,-132,-560,-336,-203,-147,-38,66,287
143,-74,-175,-375,-375,-103,-67,49,169,467
373,-83,-254,-112,-240,47,58,138,242,494
182,-160,-27,278,39,161,134,198,282,467
-163,-330,12,273,142,229,207,258,330,429
38,-567,-54,110,112,181,151,192,180,174
219,-843,57,109,111,93,79,85,-3,-217
19,-1195,84,327,274,144,124,113,-3,-441
-35,-1513,60,329,244,139,121,113,-37,-425
-110,-1908,49,398,104,56,72,84,-29,-334
-422,-2126,259,524,-16,-42,-15,-23,-93,-346
-384,-2008,423,235,-161,-111,-91,-109,-141,-257
5,-1754,335,-259,-217,-112,-67,-75,-65,-106
57,-1503,421,-395,-114,-28,-3,-34,-73,-168
-96,-1207,328,-322,-22,25,-10,-63,-126,-238
-12,-876,52,-308,-68,19,-3,-35,-120,-112
159,-550,-278,-382,-214,-34,63,99,24,127
166,-127,-409,-179,-213,-109,61,143,102,255
-43,217,-415,73,-95,-138,-73,3,-66,57
56,422,-173,7,-65,-146,-272,-182,-250,-147
289,398,466,-147,-26,-118,-314,-232,-248,-167
289,230,463,-71,97,-56,-218,-148,-115,-27
-163,-282,108,146,266,133,17,40,110,112
-657,-909,-339,71,191,237,149,177,236,194
-732,-1242,-590,65,95,213,105,120,149,149
-525,-1365,-242,365,204,115,4,-17,-29,-10
163,-1264,310,252,90,-78,-131,-137,-134,-76
671,-1125,455,-49,-78,-169,-205,-168,-106,30
714,-1052,280,-32,-52,-88,5,-44,2,167
561,-1028,49,20,-49,-42,205,69,91,182
68,-964,-65,-14,-129,-178,0,-67,-16,36
-197,-635,-62,-65,-48,-224,-178,-194,-120,-26
223,-160,-172,144,228,-95,-126,-122,-30,106
363,289,-268,377,400,85,49,58,94,137
-64,715,-271,241,200,33,-12,-34,-39,-66
-671,848,-125,301,4,-86,-155,-186,-194,-234
-723,816,151,719,67,44,-32,-52,-93,-164
-582,766,340,599,40,165,102,100,51,-119
-470,791,281,-6,68,177,90,62,55,-241
-116,694,89,-133,224,114,-10,-79,-83,-276
126,431,87,-125,240,78,-3,-79,-79,-172
391,278,-170,-763,-123,77,147,122,166,87
923,143,-68,-780,-275,40,177,201,295,290
814,-234,193,-369,-193,-3,121,167,259,267
-107,-589,158,-268,-216,-21,92,129,150,78
-642,-707,-24,-287,-172,4,103,98,14,-112
-429,-693,-27,-136,-48,24,108,81,-12,-145
21,-565,-46,-1,47,20,77,45,-29,-96
182,-416,-17,85,110,70,93,19,-60,-57
166,-171,45,83,-43,-19,-11,-125,-180,-79
247,193,123,-15,-168,-105,-104,-202,-228,-45
160,401,157,-121,-153,-106,-87,-147,-148,-24
-207,279,-62,-142,-40,-41,-3,-34,-40,-105
-366,141,-212,-140,10,10,29,-10,-30,-149
-189,121,-186,-140,-33,-9,-23,-68,-86,-98
-86,-197,-106,-69,-55,-43,-100,-104,-95,2
246,-638,-23,34,-67,-56,-118,-82,-70,92
534,-1069,-83,53,-35,53,18,55,108,186
33,-1644,-293,84,125,131,109,121,186,136
-337,-2061,-266,340,447,218,148,143,153,93
-252,-2244,-93,153,333,233,208,220,216,123
-111,-2018,-64,-337,-145,72,126,172,236,215
-29,-1497,189,-246,-365,-138,-86,-22,83,162
-59,-1143,167,-83,-359,-180,-133,-58,14,92
-14,-748,-24,-83,-302,-153,-97,2,117,224
-112,-372,-90,-46,-163,-122,-74,47,166,378
-85,310,-92,8,-20,-94,-93,29,178,494
94,1065,31,150,159,-11,-71,11,130,456
216,1579,-173,90,241,107,-18,85,142,500
153,1526,-554,69,228,218,59,133,107,263
-61,797,-748,384,263,248,9,4,-74,-240
-369,319,-610,479,277,154,-135,-220,-342,-712
-335,386,-67,444,148,54,-175,-294,-423,-776
-148,395,679,740,241,39,-40,-189,-248,-446
-160,-92,998,1084,524,158,188,71,41,-72
-134,-321,556,882,257,16,81,35,20,-77
180,-348,89,613,-131,-280,-250,-195,-144,-122
706,-313,51,237,-256,-293,-256,-143,-72,66
461,-314,107,-316,-452,-245,-196,-106,-74,20
-166,-316,48,-741,-432,-68,-26,-46,-84,-223
-271,-203,-8,-733,-194,211,228,208,78,-356
-199,-81,43,-658,-68,367,385,391,225,-290
-136,54,93,-776,-162,228,314,330,233,-173
127,298,287,-600,-146,36,152,119,65,-90
248,349,441,-66,8,-63,-47,-82,-112,-111
211,240,340,89,-44,-112,-126,-119,-129,-111
-51,-28,187,35,-142,-205,-202,-176,-149,-155
-74,-353,-70,-102,-58,-239,-300,-267,-244,-199
134,-694,-448,-241,25,-99,-152,-201,-200,-169
379,-1085,-518,-254,22,100,140,-40,-41,-15
385,-1645,-264,67,9,205,308,78,37,67
-182,-2468,60,413,90,238,320,191,138,-1
-453,-2928,314,100,-90,90,103,87,69,-77
-529,-2986,131,-246,-139,-2,3,-55,-69,-90
-314,-2832,-157,-203,44,-20,19,-25,-7,51
-130,-2580,-273,-125,76,-102,-27,-18,24,143
36,-2334,-239,-193,-55,-134,-87,-62,2,147
506,-1910,132,-101,-59,-67,-59,-40,20,161
673,-1469,272,-26,3,64,66,78,96,180
95,-1160,62,-118,14,133,134,158,157,120
-280,-772,-29,-165,-47,39,48,68,103,48
-159,-453,114,-107,-56,-47,-68,-56,-3,11
-114,-329,89,-2,5,-11,-59,-34,6,6
-187,-326,1,26,37,22,-20,37,116,63
-279,-360,-25,10,22,18,-34,56,180,90
-183,-462,-22,-8,18,32,-55,38,123,93
-90,-686,-48,44,77,36,-67,4,75,87
-47,-987,-30,116,136,42,5,6,37,59
-10,-1358,8,146,209,110,106,17,-44,-12
93,-1544,-12,104,167,118,51,-39,-108,-78
123,-1573,-93,57,63,78,6,-63,-108,-109
114,-1484,-195,34,2,41,15,-25,-39,-37
60,-1347,-272,-53,-140,-62,-3,14,-15,32
-48,-1264,-212,-78,-270,-176,-39,33,10,49
-143,-1399,-51,-41,-159,-131,-30,9,8,35
-36,-1765,-20,-127,-43,-3,10,0,-47,6
-9,-1641,-133,-120,-12,13,0,-21,-78,-33
-20,-1156,-76,213,142,24,-51,-70,-95,-25
-46,-722,0,492,352,73,-68,-97,-121,-17
-77,-492,10,651,474,55,-94,-94,-88,-22
36,-420,-7,416,338,3,-101,-47,-10,81
135,-484,-22,-141,0,-29,-73,-2,58,165
9,-840,230,30,-145,-104,-132,-74,-15,83
-34,-1215,452,532,-151,-223,-265,-205,-147,0
191,-1373,274,360,-297,-366,-327,-237,-159,12
232,-1749,-135,157,-377,-464,-349,-241,-155,-38
251,-1961,-376,242,-126,-262,-172,-130,-62,-79
76,-1905,138,384,181,67,109,56,72,2
-317,-1683,679,126,154,96,178,168,178,165
-120,-1329,531,-542,-116,-12,137,220,242,349
441,-961,120,-959,-200,28,122,218,249,398
360,-784,-166,-887,-157,132,173,230,246,302
222,-701,-196,-594,-117,118,163,200,211,211
211,-440,-98,-343,-97,36,98,121,154,170
243,181,-70,-229,-97,-17,42,51,77,131
275,690,-92,-185,-106,-66,-31,-50,-37,53
149,935,-43,-110,-62,-55,-64,-84,-90,8
-151,905,32,11,68,52,39,27,30,8
-458,714,65,91,141,108,107,78,71,-25
-485,527,50,97,126,82,70,44,41,0
-401,350,-99,-6,32,4,5,-13,20,6
-345,170,-311,-170,-97,-84,-48,-44,-4,4
-62,242,-211,-162,-136,-166,-147,-129,-85,66
77,310,-175,95,113,3,-5,-72,-88,18
436,306,-257,535,381,287,229,87,13,33
596,177,-505,639,545,438,328,147,56,-60
-210,-47,-726,552,632,301,165,1,-84,-308
-611,293,-338,708,712,30,-145,-253,-301,-432
-261,834,244,345,346,-57,-143,-212,-229,-260
135,1352,494,-186,-313,-54,-14,5,2,74
166,1704,538,-531,-708,-182,-68,43,39,188
79,1931,358,-684,-694,-272,-132,28,41,151
-133,1882,172,-398,-390,-144,-10,89,92,88
-113,1758,86,-193,-190,-18,51,115,103,161
-7,1569,0,-198,-106,-4,46,96,119,248
10,1232,56,-142,-29,28,70,62,67,221
7,847,140,-58,30,18,23,10,6,184
336,775,237,-27,17,-101,-134,-94,-55,186
570,705,183,-89,-77,-239,-284,-218,-199,107
369,344,-51,-168,-125,-285,-305,-211,-186,13
21,-10,-173,-142,-26,-209,-228,-133,-109,-47
58,156,-33,87,141,-79,-128,-48,-50,-112
350,418,144,319,237,99,1,54,60,-129
99,414,90,366,80,124,11,58,76,-178
-709,492,-1,352,11,145,101,110,98,-250
-663,859,-170,87,138,246,284,230,170,-88
-69,1248,-484,-141,440,434,410,343,245,95
-69,1739,-699,-233,431,367,301,245,138,83
-240,2272,-668,-175,115,117,65,28,-45,40
-97,2646,-83,177,-44,0,-39,-48,-130,-39
-91,2713,309,187,-208,-91,-67,-44,-94,-124
-273,2489,298,157,-103,-58,-37,2,-22,-229
-278,2085,49,273,185,16,19,49,67,-230
-159,1716,81,494,263,1,14,64,80,-156
-167,1358,44,150,-111,-187,-129,-11,17,-99
141,926,21,-269,-457,-346,-255,-144,-114,-23
725,688,175,-196,-309,-149,-88,-61,-77,120
718,429,245,-116,-64,40,56,51,6,138
221,141,150,-173,116,131,119,133,39,28
-100,-82,37,-153,179,122,86,133,90,-76
-49,-56,-76,-169,55,17,-15,21,-26,-207
-116,14,-10,-186,-153,-82,-62,-25,-88,-238
-365,163,214,-146,-245,-138,-96,-38,-99,-209
-308,668,193,-75,-231,-103,-86,-138,-173,-197
-156,1054,170,81,-151,-59,-111,-229,-250,-214
-119,1191,90,270,-32,-16,-26,-151,-190,-199
-134,1064,7,243,96,80,106,-21,-93,-98
-35,908,-13,156,242,188,129,48,-18,16
163,751,73,127,279,201,90,55,47,96
317,473,147,181,238,192,53,32,39,98
229,116,-47,129,146,188,65,-10,-32,50
36,-213,-222,-6,-37,43,-43,-88,-103,0
135,-371,-306,-122,-123,-56,-57,-42,-43,103
222,-498,-255,-95,-23,-64,-20,20,17,182
195,-411,-178,-82,4,-115,-66,-10,0,173
239,-31,-102,-126,-69,-200,-133,-60,-25,193
354,168,-179,-244,-89,-177,-120,-30,42,332
627,457,-63,-301,-100,-113,-59,22,152,494
437,635,78,-232,-25,-29,51,97,201,426
-218,748,-1,105,307,120,125,124,179,247
-507,1077,-315,341,537,255,191,190,225,238
-732,1388,-672,48,387,325,270,280,252,58
-916,1713,-446,-62,172,208,179,166,49,-332
-637,2053,474,346,51,-51,-76,-58,-166,-441
-266,2209,626,186,-189,-184,-169,-129,-183,-303
-204,1982,322,0,-302,-218,-189,-118,-161,-213
-52,1528,355,250,-361,-365,-344,-192,-174,-152
-93,1099,485,449,-299,-392,-345,-261,-258,-274
-118,762,380,239,-170,-138,-98,-136,-207,-306
20,529,209,-118,-116,30,19,-38,-118,-284
84,386,170,-187,3,95,40,-41,-153,-323
78,312,25,-113,216,210,104,-54,-152,-234
141,325,-206,-188,295,312,239,78,-7,-36
218,440,-313,-252,208,264,259,167,125,141
206,563,-215,-131,53,95,85,116,116,213
87,665,-3,-30,-87,-37,-58,26,33,169
-69,827,12,-287,-196,-52,-20,25,6,36
7,1228,-70,-252,-148,7,76,60,0,-18
29,1593,142,217,-45,-12,-1,-16,-65,-60
-126,1585,128,111,-135,-121,-113,-137,-154,-178
-36,1366,7,-55,-92,-174,-174,-192,-171,-215
-25,978,-221,246,315,-144,-195,-205,-140,-190
-64,501,-571,226,438,-57,-86,-59,-27,-33
-100,10,-823,-182,68,-100,-41,7,28,32
-40,-309,-628,-149,-203,-148,-42,10,46,50
258,-447,94,234,-181,-95,25,68,131,180
438,-486,854,40,-182,-16,92,115,176,256
394,-504,1011,-350,-248,30,147,146,179,268
331,-533,346,-567,-362,-50,119,121,190,296
240,-498,-111,-516,-331,-78,116,112,197,314
228,-366,-109,-219,-96,16,128,105,151,291
107,-188,-103,8,83,134,149,130,161,267
-230,220,47,135,40,74,81,102,168,213
-130,762,363,355,53,-34,-65,2,79,117
-15,1118,409,543,196,28,-48,-21,9,-72
-143,1227,239,396,182,20,-62,-59,-66,-260
-214,1409,148,147,225,36,-46,-81,-89,-378
-242,1304,34,-7,258,115,67,-24,-72,-327
-229,902,-162,-215,49,71,95,59,18,-163
-148,414,-231,-398,-217,-101,-11,21,41,-30
75,33,-201,-282,-119,-160,-29,41,107,140
226,-147,-258,-164,8,-67,25,36,42,137
125,-442,-232,-190,-17,34,36,-20,-97,-43
-126,-891,-5,-99,-36,74,4,-62,-152,-169
-193,-1114,211,15,-31,116,-25,-84,-115,-147
-3,-1102,177,-22,-73,83,-48,-83,-95,-36
161,-1083,152,84,-105,-13,-57,-65,-50,88
297,-1025,71,214,-67,-101,-49,-90,-64,71
414,-897,5,223,-78,-200,-163,-238,-192,-48
452,-854,-169,205,0,-136,-161,-227,-172,-56
179,-792,-249,270,98,1,-42,-77,-71,8
-152,-729,-94,271,88,29,-7,-23,-38,0
-275,-689,0,190,168,141,82,66,92,-13
-449,-770,-106,-107,212,215,153,148,145,-87
-499,-917,-314,-270,223,178,94,83,38,-163
-312,-1049,-221,-178,178,123,21,-2,-35,-94
-85,-1095,19,-246,-16,41,10,0,-1,-7
285,-987,36,-156,-132,-11,-26,-20,12,26
450,-1023,-193,60,-58,-48,-98,-115,-98,-22
496,-1272,-509,160,54,-60,-106,-136,-104,-56
35,-1493,-347,380,249,-95,-105,-141,-110,-140
-409,-1365,-70,132,173,-106,-77,-110,-104,-194
-390,-870,348,-55,32,-11,65,58,49,-90
-465,-400,499,-182,-99,49,209,275,286,73
-325,76,469,-100,-175,27,187,277,314,157
39,692,265,7,-12,111,231,281,268,244
174,1258,-32,-120,35,153,297,320,319,438
41,1708,-205,-288,-135,-10,100,154,196,496
-116,2128,-94,-179,-192,-80,-54,-11,43,398
-261,2236,104,31,-85,11,-12,-20,-19,114
-284,2076,35,-44,-78,60,-1,-7,-77,-102
-183,1804,-130,-110,-57,81,19,28,-63,-156
-25,1463,-83,-13,-7,43,-33,-20,-104,-205
126,1110,205,84,-36,-57,-141,-123,-154,-289
47,669,345,132,-29,-100,-166,-160,-194,-395
81,179,278,97,-36,-65,-110,-104,-169,-290
260,-310,14,2,-26,-18,-8,1,-23,-64
271,-651,-97,-2,34,26,31,-13,-40,-46
265,-803,-82,18,27,21,-4,-60,-104,-21
270,-934,-70,4,-30,-31,-51,-69,-71,1
234,-972,64,-30,-66,-48,-77,-68,-62,-61
259,-860,0,-97,-149,-129,-161,-136,-119,-68
154,-732,-38,-44,-230,-263,-302,-256,-218,-37
-6,-678,-74,144,-141,-254,-303,-282,-242,-56
252,-665,-62,291,-8,-156,-179,-192,-144,-23
480,-750,15,324,110,-8,-33,-62,-63,-49
-61,-917,32,209,237,124,98,64,48,-24
-519,-1164,-18,47,281,154,151,137,146,63
-339,-1475,-212,-79,83,119,193,196,239,207
25,-1792,-378,-179,-124,21,118,149,224,353
315,-2161,-331,-62,47,14,57,59,98,338
293,-2390,-206,133,187,30,23,-28,-8,177
176,-2562,-49,82,25,-21,-19,-31,30,252
-310,-2731,139,105,-36,38,39,65,124,309
-739,-2612,35,238,192,166,137,162,154,179
-701,-2275,-474,303,373,91,-13,34,53,-118
-424,-1815,-491,160,213,-57,-171,-109,-74,-492
-164,-1266,-291,-63,49,38,1,19,18,-462
-82,-690,381,73,-12,103,152,101,45,-239
65,-49,925,317,60,-28,0,-32,-47,-109
418,496,446,-32,90,9,17,92,78,177
413,769,51,-312,-33,115,149,211,130,184
104,813,57,-313,-237,38,64,27,-96,-255
-46,721,303,-148,-245,12,-29,-84,-197,-513
93,587,272,-113,-140,97,29,-32,-160,-521
210,214,116,-19,-74,97,34,10,-46,-312
61,-268,-145,100,-35,37,-21,10,6,-113
-225,-785,-470,-117,-10,0,-52,-18,4,-142
-203,-1109,-393,-123,135,-55,-62,-50,9,-143
-71,-1293,168,118,197,-121,-45,-84,-4,-112
-50,-1474,469,-45,53,-43,135,52,131,11
-53,-1595,201,-14,-4,90,318,128,185,76
18,-1610,-64,257,130,130,210,-4,87,75
-123,-1556,-71,648,290,102,-12,-118,-52,-76
-258,-1363,218,858,335,-50,-202,-206,-165,-201
-291,-1170,305,523,17,-342,-454,-352,-298,-283
-184,-902,97,-82,-295,-390,-396,-322,-293,-239
71,-418,165,-214,-348,-296,-173,-166,-155,-24
510,-27,195,-273,-363,-231,-124,-27,41,227
585,-557,19,-455,-328,-115,-51,64,144,318
403,-1204,-98,-433,-272,-33,-7,-5,30,176
156,-1570,-304,-344,-106,161,125,77,83,107
-315,-2022,-556,-215,131,353,355,285,266,161
-238,-2269,-371,-199,169,281,414,295,244,235
114,-2409,137,-165,61,101,326,180,127,179
42,-2838,165,-263,-97,2,166,106,83,131
-79,-3263,-34,-432,-233,-60,46,83,108,142
-191,-3204,-2,-371,-191,-77,39,103,180,102
-184,-2926,127,-179,-97,-1,126,172,255,97
-130,-2635,59,-158,-108,22,88,156,225,105
-34,-2248,-73,-127,-71,27,9,34,71,0
12,-1836,-190,-26,53,116,4,-73,-79,-175
-64,-1413,-330,26,126,207,-27,-134,-152,-231
-199,-955,-406,61,220,300,-34,-162,-200,-260
-263,-519,-231,168,421,341,-4,-160,-220,-289
-206,-165,108,248,487,227,6,-132,-170,-241
-136,-18,133,163,240,18,-48,-121,-144,-154
29,-22,-93,93,-81,-182,-147,-108,-75,-57
418,-101,-39,285,-122,-226,-166,-76,-16,75
793,-225,108,358,-70,-138,-95,-12,8,227
850,-394,282,186,-54,-70,-55,20,10,276
532,-563,279,15,-22,1,9,75,106,333
162,-711,16,-252,-20,36,42,123,185,440
-82,-876,-130,-282,74,39,20,109,146,378
-89,-854,-164,14,252,54,-21,31,99,178
250,-597,-309,-69,154,34,-34,-2,46,62
214,-353,-531,-313,-58,-53,-38,28,41,-19
-332,-25,-405,-124,-140,-120,-47,61,84,23
-556,395,14,-28,-289,-156,-44,78,112,151
-136,992,241,13,-345,-155,-53,69,96,210
139,1522,397,292,-83,16,35,109,74,160
-41,1789,433,541,111,111,63,100,48,-19
-262,1892,407,554,150,74,16,48,14,-74
-333,1746,-100,295,182,57,40,65,51,-41
-180,1503,-414,24,200,13,48,61,54,-3
-69,1219,-292,-160,75,17,66,70,72,-62
-65,1046,213,-174,-169,-16,41,46,61,-123
46,778,580,-261,-435,-170,-45,6,30,-147
216,388,485,-440,-524,-218,-36,29,-37,-160
124,-42,207,-382,-347,-144,26,60,15,-111
153,-275,-25,-245,-218,-95,60,87,93,0
112,-214,-83,-116,-91,-34,32,13,14,-44
-56,52,-13,-25,37,-4,-70,-118,-183,-161
-42,227,-48,-9,106,35,-71,-134,-232,-136
68,94,-103,-1,128,90,-46,-129,-187,-103
-36,-174,-113,23,106,106,-31,-100,-167,-169
-138,160,-60,19,65,44,-70,-108,-187,-228
7,781,125,1,0,-40,-147,-163,-204,-148
113,1219,244,50,3,-36,-133,-153,-148,-86
151,1314,100,44,4,-23,-96,-125,-140,-64
38,1156,-163,-22,16,-25,-92,-129,-156,-53
77,871,-220,107,120,-18,-124,-144,-180,-15
412,597,-63,483,276,86,0,-29,-29,114
322,271,-106,561,240,110,88,95,149,165
-193,-30,-126,663,57,-81,-68,-50,31,19
-781,-218,-213,662,26,-139,-96,-98,-32,-61
-548,47,-320,197,-51,-92,-35,-77,-47,4
-94,572,-62,-265,-133,-49,-4,-25,-15,91
-13,1039,383,-464,-189,-11,56,80,71,105
70,1210,302,-476,-132,63,146,167,115,84
-23,1209,-72,-493,-77,85,155,170,135,101
-186,1655,-187,-283,7,39,52,57,63,51
-34,2286,54,103,116,-42,-79,-62,-24,100
331,3029,204,131,73,-89,-132,-96,-34,230
633,3607,9,-221,-148,-132,-158,-101,-21,330
580,3894,-91,-254,-213,-87,-133,-52,6,340
-56,3817,-212,-217,-129,65,47,112,91,137
-528,3036,-381,-342,-114,111,125,191,130,-75
-302,2500,-376,-288,-78,61,94,146,119,-68
-118,2408,-42,-57,19,63,102,124,131,-44
-90,2244,328,18,25,52,95,94,51,-120
-48,1850,328,79,66,76,153,119,51,-105
-106,1355,37,110,156,72,115,72,5,-34
-9,866,-163,97,258,47,46,-17,-69,-168
-100,466,-158,217,314,106,67,-34,-104,-373
-319,265,-89,151,125,24,-3,-96,-219,-433
-249,261,2,182,30,-67,-125,-180,-271,-390
-145,206,-199,71,228,15,-110,-177,-246,-316
-66,202,-393,3,403,108,-44,-133,-165,-195
167,425,-581,89,357,147,53,26,74,70
325,650,-501,95,44,16,19,102,223,229
277,754,85,234,-245,-210,-237,-140,-63,8
338,718,706,567,-371,-314,-434,-339,-323,-119
454,371,735,429,-245,-164,-298,-220,-197,-48
461,-204,405,102,77,124,-2,53,114,141
282,-946,59,-268,87,210,138,209,287,373
67,-1503,66,-411,-66,116,128,162,219,295
-352,-1791,299,-113,-22,28,92,35,76,106
-492,-1916,274,-94,-162,-140,18,-73,-39,123
715,-1745,-243,-505,-490,-293,-48,-3,141,702
1079,-1479,-287,-94,-219,-183,-37,79,279,902
838,-1373,-274,492,139,-16,10,121,323,778
-141,-1231,66,933,501,165,97,158,276,381
-993,-901,409,857,521,176,122,131,123,-28
-888,-410,439,478,292,3,-52,-100,-201,-366
6,856,-471,-302,91,54,-4,-124,-163,-497
-442,1045,-555,-397,31,192,214,69,-40,-741
-406,1135,-177,-228,-158,65,104,98,-11,-648
-299,1198,8,99,-173,-85,-84,13,-55,-419
-253,1019,18,253,-54,-109,-163,-89,-91,-330
16,824,127,60,-24,-111,-210,-96,-44,-127
209,575,262,-262,-184,-72,-150,-27,-11,-12
84,120,458,-383,-248,44,27,-7,-83,-128
-75,-233,475,-270,-153,125,158,5,-138,-255
-125,-466,373,-169,-120,72,183,15,-137,-262
-44,-503,318,12,-95,-40,137,-28,-136,-186
-133,-522,139,16,-135,-61,36,-110,-180,-187
-149,-499,-93,-141,-146,53,124,-99,-176,-177
20,-317,-280,-137,-38,138,223,-6,-108,-48
93,-236,-477,-203,22,91,199,80,49,133
71,28,-441,-326,-82,-62,103,62,94,191
433,626,-27,-216,-180,-169,-77,-59,9,194
626,921,120,-212,-171,-161,-151,-104,-7,178
421,553,38,-234,-76,-35,-53,-15,54,172
33,-320,25,-221,-13,61,32,56,125,182
-181,-653,0,-207,-36,64,59,80,198,267
109,-856,-226,-219,31,22,1,19,192,441
57,-1378,-713,-298,128,-47,-111,-88,101,591
186,-1673,-866,-153,210,-30,-85,-55,116,801
552,-1625,-780,87,152,-19,6,82,263,973
503,-1653,-527,597,112,-14,37,169,307,770
-67,-1849,-142,1240,254,93,64,147,153,79
-827,-1776,-87,859,207,131,41,-21,-176,-798
-1177,-1306,374,350,86,101,45,-39,-287,-1076
-852,-472,1195,368,118,35,22,-10,-218,-780
-259,295,996,86,66,67,88,90,-58,-261
121,709,385,-339,-150,70,148,208,114,89
126,1052,111,-485,-252,-17,73,157,100,83
31,1332,51,-321,-212,-96,-50,32,-24,-59
-62,1476,85,-130,-122,-106,-110,-54,-98,-194
21,1702,209,-103,-92,-118,-149,-128,-160,-171
82,1768,198,-62,-84,-69,-97,-136,-148,-111
-45,1468,-95,-63,-10,4,-10,-87,-94,-155
-90,1035,-413,-159,66,106,105,16,-37,-182
72,706,-459,-89,123,102,116,44,26,-57
174,506,-95,295,96,22,20,25,60,119
140,292,405,538,50,-72,-65,-79,-17,56
110,71,622,519,133,-164,-154,-231,-174,-132
215,-51,459,570,307,-136,-129,-225,-134,-110
473,-88,136,273,95,-170,-146,-187,-70,68
620,-273,-253,-350,-410,-365,-328,-286,-163,61
527,-487,-631,-657,-481,-280,-269,-210,-130,86
125,-630,-535,-425,-174,63,69,101,147,251
-403,-601,-49,-230,49,252,264,280,306,315
-363,-266,365,-244,55,198,227,241,272,208
-70,5,457,-255,5,123,145,145,152,4
-45,-92,215,-42,45,141,135,117,93,-44
-300,-374,-13,177,70,147,168,147,105,-5
-455,-701,-151,84,-95,6,104,148,123,-20
-461,-1023,-83,47,-239,-167,-56,26,56,-95
-201,-1308,-103,-81,-161,-136,-72,-20,-10,-92
-4,-1815,-145,-233,-25,-11,13,17,-8,-17
50,-2113,9,-147,150,61,43,18,8,23
114,-2295,-28,77,338,153,109,52,31,89
120,-2404,-24,254,338,169,169,115,77,126
73,-2313,-59,86,121,98,116,79,37,57
-52,-2038,-125,-116,-58,-2,23,18,-35,26
-13,-1589,7,-52,-44,-65,-52,-39,-81,33
160,-1187,198,-66,58,7,3,15,-5,120
217,-728,167,-224,51,25,-2,30,41,156
390,-66,34,-326,-56,-86,-137,-94,-66,52
508,570,-60,-285,-117,-138,-185,-160,-127,-22
143,874,-235,-252,-163,-102,-118,-80,-124,-55
3,916,-294,-73,-112,-49,-58,0,-58,12
-395,703,-276,202,91,73,20,61,-9,-17
-868,367,-494,29,205,154,74,66,-40,-85
-611,221,-465,-143,205,167,79,24,-63,-106
-49,149,-51,-106,54,152,152,79,-5,-20
240,42,277,50,-105,10,106,60,24,50
51,-214,210,509,119,-127,-117,-144,-105,-11
-99,-414,-77,629,466,-40,-132,-116,-44,74
-193,-582,-294,351,392,26,-47,30,90,156
-422,-633,-219,186,-21,-57,-75,5,32,42
-332,-426,276,223,-353,-217,-207,-124,-118,-58
156,19,849,307,-322,-237,-252,-139,-97,85
308,286,728,167,-116,-52,-68,64,128,280
175,334,358,312,87,106,61,134,151,196
239,409,-88,105,22,164,110,109,70,74
436,575,-448,-326,-70,123,126,16,-33,26
304,751,-322,-146,62,77,60,-98,-140,-28
3,647,-27,60,182,17,-60,-134,-180,-11
126,341,14,-324,72,15,-44,-23,-47,100
251,-252,132,-589,-120,58,29,67,47,91
76,-1272,240,-391,-123,58,60,29,2,-29
-105,-1753,251,-149,-94,92,137,76,5,-162
-338,-1963,260,-96,-99,34,101,63,-34,-358
-43,-2092,188,-13,-99,-123,-40,-64,-164,-382
299,-2276,18,135,-107,-235,-143,-143,-192,-258
158,-2454,-49,86,-223,-354,-249,-193,-155,-204
-34,-2462,-4,-12,-195,-314,-211,-129,-55,-80
-197,-2381,-93,-42,-48,-152,-72,-40,42,49
-255,-2280,-211,-163,-81,-164,-118,-117,-57,95
152,-1840,-409,-383,-250,-264,-301,-230,-98,326
300,-1482,-507,-351,-163,-149,-303,-223,-47,500
364,-1190,-470,-146,86,126,-54,-46,118,533
524,-804,-109,203,211,269,189,129,208,376
-390,-816,91,320,229,314,348,278,250,27
-1189,-844,185,276,258,341,483,383,285,-170
-584,-681,290,104,223,297,433,341,188,-316
-32,-755,340,-115,45,95,166,121,-32,-480
292,-856,292,-268,-105,-55,-3,-25,-141,-370
381,-1149,73,-308,-51,-19,32,26,-38,-89
361,-1404,-106,-268,134,90,121,90,32,27
102,-1521,-211,-242,151,149,175,169,140,142
-214,-1570,-509,-291,25,207,285,339,373,271
-154,-1416,-703,49,231,256,312,337,338,39
81,-1075,-407,778,484,158,109,50,-3,-474
59,-681,143,964,311,-101,-202,-291,-319,-769
-91,-234,594,646,29,-273,-359,-403,-370,-654
-103,279,757,316,-10,-198,-253,-257,-225,-406
141,830,553,-26,32,-98,-168,-106,-57,-97
401,1270,184,-287,13,-59,-127,-18,37,118
199,1472,-196,-280,-81,12,84,149,191,199
-298,1381,-250,239,-86,-58,33,60,83,70
-710,1198,75,782,159,-120,-169,-198,-194,-104
-270,1259,20,446,223,34,-52,-148,-114,197
97,1062,-248,-444,-141,-54,-62,-145,-53,416
149,777,-352,-922,-360,-192,-157,-172,-81,456
340,597,-159,-324,-76,-164,-147,-92,2,577
410,329,82,385,7,-169,-117,-44,73,618
277,24,203,343,-254,-179,-64,25,132,542
-94,-354,146,258,-403,-234,-136,-29,16,188
-100,-587,63,255,-174,-103,-90,-26,-40,-213
158,-469,20,54,14,96,29,36,-54,-520
-143,-242,334,-137,56,137,56,64,-70,-640
-535,-53,585,-361,17,205,172,209,74,-559
-106,274,329,-470,2,252,254,317,193,-364
429,860,67,-290,78,213,219,252,125,-221
-64,1090,-174,140,111,104,97,97,0,-283
-500,1036,-154,442,-7,-95,-113,-86,-120,-327
-462,604,-250,407,-103,-204,-188,-147,-166,-307
-353,199,-483,88,-59,-71,2,-26,-93,-244
-186,51,-364,31,46,73,101,-9,-113,-223
62,-130,-169,-63,128,196,178,39,-26,-78
266,-425,-161,-454,65,258,268,111,91,58
274,-744,43,-617,-77,100,159,-7,-11,-6
303,-986,170,-510,-102,-28,63,-85,-88,-26
219,-1256,-120,-452,-61,18,95,0,77,90
-48,-1394,-256,-400,-84,49,125,101,222,224
-78,-1346,-76,-49,-49,30,79,113,227,293
89,-1101,127,123,-63,-47,-40,9,113,301
319,-700,48,-195,-247,-196,-181,-110,8,461
795,-118,11,-339,-342,-371,-375,-256,-70,795
1432,678,-24,-305,-355,-518,-574,-424,-77,1091
1431,1092,-255,-281,-339,-475,-502,-340,94,1186
955,1052,-342,-158,-231,-260,-246,-85,224,1070
482,1000,-221,119,-49,-66,-69,75,251,738
-337,756,-13,446,274,149,72,152,189,159
-484,158,-25,358,352,220,74,93,-17,-422
-93,-886,28,294,455,399,260,219,14,-737
-344,-1251,329,319,474,441,373,356,152,-646
-1335,-1265,341,174,282,218,167,215,36,-605
-1563,-1226,120,161,315,257,172,176,-71,-598
-1151,-1264,-324,370,585,390,240,156,-117,-505
-784,-1463,-644,422,458,279,159,99,-60,-369
-467,-1350,-579,201,39,33,39,37,-7,-192
-198,-817,36,325,-66,-6,73,43,3,-74
-90,-277,396,601,31,8,83,-48,-141,-175
76,108,560,497,-155,-145,-122,-206,-277,-210
266,454,661,70,-222,-182,-245,-216,-278,-91
199,324,658,-167,-121,-46,-173,-162,-226,-121
-122,13,361,-267,4,103,-10,-78,-177,-180
-312,116,78,-384,16,110,94,31,-104,-128
-210,200,35,-335,-5,61,106,100,-10,-34
-45,-35,-13,-259,-57,-24,67,125,77,51
83,-1016,-9,-185,-57,-53,49,131,107,114
126,-1929,-6,-127,20,-34,39,117,95,144
212,-2288,-68,-54,133,-22,22,101,77,179
176,-3098,-134,-3,166,-9,-11,58,30,163
50,-3564,-185,-140,-14,-35,-28,7,-19,122
45,-3693,-173,-188,-124,-28,-35,-3,-19,131
199,-3710,-100,-50,-31,73,35,86,61,249
276,-3856,-193,-167,-51,53,12,83,82,315
241,-3667,-316,-193,-69,-75,-152,-108,-88,178
266,-3241,34,792,173,-205,-291,-286,-193,56
528,-2727,428,1531,237,-282,-314,-310,-169,70
541,-2397,180,850,-161,-251,-177,-131,34,164
-436,-2031,-184,172,-430,-247,-138,-24,112,223
-1124,-2070,-274,72,-288,-103,-45,62,154,336
-205,-1906,-199,-343,-190,22,56,159,236,538
462,-1346,-14,-980,-240,38,79,227,276,621
412,-1119,-53,-1132,-198,1,22,194,230,364
171,-1263,-222,-862,-86,-16,48,124,112,-156
-45,-1172,-257,-490,8,87,228,167,61,-518
114,-1225,-123,-185,33,105,231,163,78,-457
196,-1329,180,165,141,131,173,102,42,-275
50,-1371,37,193,215,235,141,63,-3,-149
147,-1300,-416,65,168,218,51,-45,-140,-152
83,-1236,-522,225,103,33,-43,-193,-299,-329
-50,-1115,275,386,11,-190,-203,-343,-395,-487
-27,-916,839,120,-213,-279,-263,-323,-300,-412
32,-616,602,-109,-235,-177,-180,-173,-141,-252
90,-723,316,-66,-75,-73,-85,-84,-65,-116
-149,-592,150,8,-15,-31,-3,-6,-36,-11
-362,-408,2,-5,71,66,82,68,73,25
-381,-312,-149,-65,91,126,144,103,49,46
-349,-278,79,-69,92,127,172,124,73,118
-18,-337,-2,-212,27,41,65,36,36,176
494,-401,-257,-330,-16,-27,-33,-33,24,258
844,-641,-295,-344,-41,-87,-127,-114,8,324
602,-705,-160,-380,-120,-187,-259,-222,-99,354
371,-990,-218,-385,-61,-171,-212,-114,38,533
586,-1217,-317,-325,-87,-219,-196,-59,159,758
384,-1544,-292,-435,-310,-308,-238,-74,167,753
-369,-2000,-98,-121,-371,-323,-264,-141,35,414
-797,-1792,268,543,-173,-278,-274,-202,-115,92
-120,-1120,574,768,107,-94,-132,-94,-92,9
70,-778,399,720,502,194,154,201,110,-110
-582,-480,35,300,326,118,125,211,112,-436
-910,21,-28,-41,126,194,196,249,101,-727
-684,881,216,105,179,390,318,308,150,-706
-250,1642,180,142,160,360,289,278,162,-519
-231,2118,145,292,246,323,233,232,183,-281
-72,2375,122,379,278,288,100,104,99,-100
288,2456,28,135,210,298,103,70,91,113
189,2292,-155,-97,179,275,151,95,94,64
-124,2114,-272,225,202,153,99,23,-35,-182
-175,1941,84,499,33,-39,70,-48,-118,-297
-131,1777,335,411,-132,-172,-42,-118,-195,-364
12,1657,248,268,-134,-55,14,-31,-110,-208
-12,860,-11,-79,-88,119,220,63,5,-56
4,-154,-129,-80,101,128,185,3,18,-21
417,93,13,276,222,-35,-45,-152,-58,0
749,538,184,396,74,-157,-178,-218,-167,37
304,871,66,118,-170,-341,-335,-369,-374,-161
-149,969,-405,-413,-262,-343,-302,-314,-315,-235
-92,1363,-257,-672,-198,-112,-41,-8,0,50
-146,1771,-62,-551,-202,-4,89,157,166,223
27,2058,41,-211,-105,8,50,74,91,185
376,1676,38,-356,-28,98,116,109,155,287
392,985,-223,-450,81,91,60,31,46,286
310,918,-563,-134,301,118,21,-14,-23,304
64,737,-816,13,238,115,27,27,59,379
-394,358,-1046,-46,0,-36,-116,-52,-6,242
-557,-47,-758,391,32,-125,-210,-127,-82,-47
-312,-136,354,785,97,-131,-207,-133,-84,-206
174,29,711,140,-113,-84,-122,-43,38,-36
269,18,555,-546,-283,-81,-44,60,138,231
62,-105,416,-679,-180,-38,84,180,199,374
-54,101,65,-421,-76,48,206,238,208,142
-180,562,-95,22,-163,-47,21,61,44,-292
-178,1031,264,326,-172,-41,-56,-37,-61,-442
-171,1366,655,252,-200,-46,11,-46,-118,-435
-303,1757,677,-56,-307,-115,-11,-118,-252,-433
-381,2108,373,-134,-139,-45,-21,-121,-257,-355
-193,2491,120,100,129,50,-44,-113,-193,-227
83,2738,94,244,159,24,-75,-147,-176,-224
150,2736,229,471,138,34,-53,-129,-153,-204
-63,2527,21,242,-68,-5,-24,-114,-113,-29
-132,2205,-125,-235,-275,-141,-51,-97,-8,373
135,1936,-99,-449,-225,-173,-43,-18,159,730
318,1296,-210,-483,-161,-189,-102,-17,272,1006
810,302,-286,-471,-196,-196,-148,-25,272,1332
1485,454,-270,-617,-292,-239,-246,-80,143,1397
1260,349,-457,-651,-334,-257,-299,-124,33,990
941,108,-381,206,90,107,37,110,115,298
328,-212,-173,879,454,544,449,421,293,-414
-1217,-441,-590,590,453,577,470,385,165,-1141
-1507,-142,-728,539,666,457,286,163,-114,-1455
-721,587,-236,923,748,303,106,-14,-267,-1180
-456,1107,357,566,236,65,-59,-96,-272,-854
-401,1661,923,-118,-243,-124,-144,-65,-136,-730
-198,1830,837,-517,-418,-100,-12,138,79,-497
-229,1653,326,-564,-280,45,116,264,197,-191
-338,1505,150,-450,-140,67,82,213,145,-5
195,1234,285,-333,-129,-10,-42,93,84,108
566,908,208,-309,-108,9,-1,61,102,192
148,631,-3,-223,-66,98,189,86,38,79
-168,515,-142,-97,-90,53,157,55,19,12
5,479,-304,-106,-143,-42,73,87,156,210
252,458,-483,-295,-141,-99,20,96,253,498
267,146,-610,-312,-115,-219,-181,-104,116,708
45,-91,-222,136,-75,-279,-308,-233,58,744
36,-59,374,272,-161,-319,-364,-292,-10,541
328,122,436,53,-23,-176,-268,-242,2,573
-24,270,70,-136,151,11,-153,-133,55,630
-653,134,-389,-386,55,136,51,35,100,403
-418,448,-502,-260,0,204,251,163,122,-8
-54,658,-94,353,186,145,155,17,-109,-684
31,757,173,641,291,144,46,-135,-386,-1288
-76,597,212,413,223,269,143,-55,-420,-1408
-82,428,503,89,93,260,179,2,-336,-983
24,226,526,-108,18,224,168,22,-213,-453
2,-219,321,-90,60,213,183,76,-86,-234
-123,-469,222,-138,4,99,159,80,-50,-346
-232,-668,166,-83,-84,-68,31,-18,-143,-470
-207,-717,179,37,-90,-154,-32,-55,-139,-356
-219,-792,140,8,-54,-135,-10,-33,-90,-164
-111,-665,89,-34,-23,-85,-15,5,-39,7
100,-512,56,-39,36,-13,1,59,91,149
199,-315,-22,-63,88,43,22,99,129,194
285,61,-92,-7,184,64,12,83,97,217
264,496,-55,200,335,67,-28,-7,33,143
43,906,-57,222,307,72,-33,-43,6,31
-122,1328,-145,75,144,39,-42,-82,-6,-10
-23,1733,-172,255,167,36,-62,-104,-13,64
75,1959,-183,281,100,47,-48,-82,-8,102
64,2050,-156,-34,-129,-26,-92,-128,-99,1
104,2172,-117,-237,-332,-168,-191,-231,-216,-28
238,2078,22,-170,-315,-165,-163,-176,-141,112
92,1682,47,-209,-276,-73,-36,-20,0,223
-227,1178,-70,-235,-220,14,65,120,150,269
-301,1035,-78,-205,-225,-44,39,114,205,334
-48,1249,52,41,-153,-133,-54,-58,51,292
-37,1464,56,150,-68,-165,-142,-186,-89,149
198,1696,-67,19,-67,-176,-165,-176,-100,167
767,2011,-114,-90,-80,-109,-83,-30,66,368
820,2159,-68,-95,-8,35,70,146,207,374
49,2216,-31,-10,213,219,252,305,286,154
-732,2360,-149,-82,187,213,262,316,226,-24
-567,2831,-130,3,13,67,81,149,52,-48
-294,3261,110,613,60,-20,-76,-17,-78,-130
-308,3508,253,902,33,-138,-249,-179,-210,-301
-220,3388,86,643,47,-108,-254,-221,-277,-388
-320,2931,-171,486,344,219,82,46,-63,-271
-356,2301,-313,348,400,291,204,189,98,-178
-98,1328,-302,110,149,63,38,31,-44,-251
-5,642,-26,-123,-157,-135,-95,-197,-262,-356
-46,539,35,-126,-174,-69,22,-170,-251,-300
30,1075,-251,-154,-71,67,109,-92,-126,-133
114,1348,-463,-192,-38,183,180,1,-3,0
178,1320,-242,-199,-135,127,126,9,-13,29
261,1461,340,-155,-161,-103,-100,-171,-215,-84
195,1492,711,81,37,-124,-88,-165,-219,-160
-63,1599,482,67,0,-43,17,-79,-117,-132
-76,2183,266,-178,-72,52,48,5,-10,57
45,3594,303,-160,30,52,-24,-17,1,133
131,4408,378,-12,86,-69,-164,-110,-38,144
190,4533,-13,-396,-50,49,-1,161,227,372
240,4696,-489,-505,-70,74,69,246,329,511
129,4683,-652,-421,-151,-76,-51,134,270,613
1342,5153,-284,-103,-122,-389,-444,-267,-24,951
1880,5046,53,15,-47,-353,-384,-214,33,1030
514,4543,-139,-82,1,-128,-72,46,238,784
-827,4197,-381,-77,108,162,213,215,306,342
-868,4340,-466,189,308,309,305,219,143,-319
-636,4650,-168,350,380,208,212,134,15,-754
-595,4894,213,308,236,17,34,4,-69,-730
-743,5210,457,362,144,46,34,38,-39,-616
-678,5665,554,306,-22,164,121,143,1,-514
-449,5656,531,180,-274,4,-38,-1,-86,-497
-195,5566,402,78,-398,-241,-253,-181,-157,-384
-53,5388,103,-120,-351,-204,-100,-126,-70,-206
8,5105,-141,-193,-267,-129,14,-1,57,-15
86,4809,55,162,-89,-98,-67,34,125,139
217,4537,457,487,65,-77,-124,-59,-10,111
562,4266,585,338,-32,-113,-97,-167,-168,49
511,3909,350,141,-66,-80,13,-193,-244,-63
299,3517,96,26,24,47,95,-176,-220,-215
-79,3025,-99,-183,162,284,210,-25,-73,-242
-458,2510,-335,-321,272,491,339,115,34,-200
-422,2065,-486,-317,239,464,336,135,40,-70
-67,1850,-285,-256,48,191,203,108,80,46
4,1504,-29,-310,-178,-62,83,66,97,75
-138,1256,65,-290,-226,-196,-3,31,22,63
101,1260,-35,-181,-161,-211,8,60,83,188
333,1223,-105,-129,-76,-165,43,83,167,318
414,1144,-105,-87,-6,-81,50,75,181,350
455,1155,-94,-78,0,-58,13,54,141,339
424,1180,-42,-61,-32,-87,-16,21,79,304
25,1028,-1,-54,-85,-153,-80,-31,42,169
-84,835,-49,12,-184,-283,-225,-152,-37,33
226,544,-236,157,-219,-326,-294,-213,-66,93
303,-57,-585,183,-203,-290,-283,-225,-69,311
251,-712,-747,336,69,-100,-120,-120,-8,403
-38,-1211,-202,812,468,145,66,11,131,364
-263,-1411,467,600,420,149,88,41,164,316
-406,-1275,641,-98,203,118,142,131,227,306
-252,-1028,324,-315,149,180,256,281,332,443
-109,-775,137,-253,48,213,270,274,270,241
-227,-500,-148,-435,-107,137,176,144,30,-342
-204,-102,-213,-306,-98,-49,-44,-72,-215,-803
265,590,154,77,-22,-215,-254,-307,-425,-798
610,1019,138,-24,-76,-131,-160,-182,-259,-414
-19,937,-22,-180,-70,64,88,131,89,-90
-414,1249,100,-85,-40,97,106,193,199,84
-228,1621,214,211,83,91,84,91,98,82
-66,1659,129,379,148,58,45,-33,-36,-120
-152,1504,38,120,31,-53,-90,-139,-184,-344
-236,1385,0,-137,-116,-114,-143,-152,-233,-420
9,1217,4,-179,-213,-161,-186,-164,-178,-207
318,849,-12,-120,-189,-144,-159,-135,-43,50
529,373,-54,-216,-156,-118,-111,-80,22,244
678,-55,-157,-293,-132,-110,-79,-42,60,474
344,-330,-201,-99,25,-34,0,22,135,634
59,-694,-133,273,258,48,66,62,148,632
-30,-1090,-278,59,98,-47,3,-8,38,437
-156,-1341,-514,-339,-155,-179,-152,-162,-157,33
-86,-1292,-617,-252,125,53,-21,-71,-149,-183
4,-1190,-442,-65,498,338,201,108,-26,-155
-148,-1150,-373,-96,518,466,373,271,96,39
-410,-1120,-273,326,352,275,219,138,-28,-53
-765,-1007,301,1008,22,-46,-81,-95,-220,-352
-1050,-977,652,1061,-410,-214,-215,-190,-326,-807
-722,-1016,783,729,-387,-91,-79,-50,-227,-851
-238,-1215,678,348,14,207,217,247,100,-392
-62,-1817,343,-18,148,250,275,304,255,-70
289,-2516,199,-393,28,117,183,215,203,29
474,-2927,-12,-692,-125,-7,79,167,143,44
698,-3189,-28,-605,-203,-139,-57,107,116,96
636,-3449,-130,-314,-81,-179,-144,20,71,86
346,-3741,-328,-9,97,-97,-145,-55,-39,98
150,-3943,-500,144,241,-25,-116,-125,-101,63
-152,-4066,-278,125,166,20,-64,-209,-184,-221
-535,-3951,163,87,187,187,85,-133,-141,-388
-588,-3539,215,7,118,240,174,-58,-103,-288
-240,-3075,84,-185,-31,147,192,-7,-61,-81
34,-2602,74,-303,-95,52,106,-7,-59,10
79,-2206,174,-294,-83,51,41,-25,-53,2
148,-1816,205,-235,-79,21,-31,-64,-58,-30
169,-1586,162,-173,-112,-21,-57,-39,-61,-42
112,-1686,48,-206,-180,-23,25,52,-8,50
244,-1909,-157,-248,-217,-95,-9,38,0,117
204,-2184,-192,49,-36,-121,-115,-93,-99,27
-22,-2478,-108,432,108,-133,-208,-217,-204,-105
-127,-2745,-244,279,-52,-217,-245,-192,-151,-58
-86,-2817,-552,-34,-144,-201,-153,-60,-29,111
-1,-2886,-423,241,2,-206,-151,-21,29,266
87,-2851,197,53,-45,-179,-107,63,207,447
186,-2668,499,-387,-108,-55,54,199,315,432
82,-2693,362,-360,10,126,268,326,343,307
176,-2407,108,-240,9,103,251,274,265,357
124,-1880,-101,-183,-65,-33,51,89,99,326
152,-1380,-208,-144,-83,-68,-28,5,-7,132
196,-1012,-247,-69,-65,-85,-72,-62,-63,-80
20,-780,-14,38,-54,-118,-156,-162,-165,-217
-84,-484,308,80,-19,-90,-157,-179,-198,-235
-173,-281,308,75,39,25,-52,-107,-161,-200
-242,-226,199,65,68,86,67,-7,-32,-164
-196,-465,35,8,79,106,162,50,33,-115
-72,-795,-51,16,87,91,173,59,3,-20
-93,-1222,-130,169,129,85,169,52,-22,20
-124,-1503,-148,243,96,7,91,-13,-55,7
-194,-1765,-130,163,-6,-76,-10,-76,-105,-14
-109,-1878,-127,50,7,-51,-15,-57,-62,-24
85,-1765,-97,32,130,-22,-57,-57,-34,-1
366,-1573,-17,41,187,-36,-107,-60,17,47
507,-1450,-47,-73,130,-15,-125,-67,55,81
431,-1361,-145,-110,-12,37,-88,8,144,258
440,-1196,-241,-145,-93,31,-61,53,226,411
170,-941,-242,-138,-107,-87,-176,-57,75,347
-280,-542,-85,71,108,-48,-146,-43,76,319
-332,-125,-80,-135,98,50,-27,83,200,396
-417,250,93,-98,31,70,9,105,205,312
-569,377,54,139,158,80,-22,20,91,12
-368,439,-50,312,336,17,-128,-112,-65,-206
-114,453,-81,89,294,-38,-103,-53,0,-40
8,176,-182,-444,-115,-107,-69,18,89,180
223,154,-31,-270,-343,-212,-189,-110,27,263
180,294,129,-10,-292,-175,-174,-98,52,293
62,456,-29,45,-122,-15,-15,37,133,83
-18,543,-156,636,334,49,0,-21,-137,-886
407,176,156,818,351,154,118,66,-94,-824
350,79,345,669,4,28,48,13,-119,-608
-198,653,628,310,-242,-85,-65,-56,-159,-397
-379,1315,537,-106,-138,110,102,113,25,-198
-244,2036,205,-372,0,287,236,224,166,-143
-20,2676,8,-396,-21,282,158,147,67,-122
-2,3254,53,-239,-41,164,-15,-33,-73,-101
2,3286,89,-146,-65,28,-73,-91,-74,-52
44,3191,57,-72,-74,-58,-61,-68,-82,22
33,3217,10,-85,-89,-112,-88,-88,-57,87
15,2891,-165,-114,-52,-75,-63,-92,-54,106
34,2503,-444,-185,-16,12,37,-11,-3,165
133,2263,-455,-156,-94,-8,38,28,62,243
117,2011,-48,228,-75,-93,-51,-49,-23,104
-154,1630,241,231,-72,-128,-106,-184,-213,-156
-275,1511,289,-8,-12,-81,-93,-230,-286,-65
-103,1638,143,-94,53,-18,-50,-147,-157,241
91,1736,12,0,69,-28,-58,-82,0,493
308,1788,44,-179,-153,-89,-29,37,149,684
405,1666,-175,-384,-235,-97,6,118,240,643
308,1621,-359,-288,-154,-60,47,118,202,522
197,1662,-341,-151,-36,13,92,104,118,267
28,1799,28,-67,-21,-33,-2,-30,-76,-220
-1,2039,279,-38,4,-67,-115,-145,-259,-609
222,1989,214,-49,64,36,-3,-30,-159,-616
82,1827,140,0,40,116,115,69,-51,-553
-442,1459,112,168,-73,-5,25,-28,-141,-515
-323,1121,-13,176,-190,-119,-72,-112,-177,-343
-28,591,-214,48,-180,-167,-152,-185,-248,-426
-130,142,-22,124,-54,-112,-96,-160,-263,-457
-131,-140,91,226,212,158,227,135,58,-181
-248,-620,-15,355,416,395,481,412,340,56
