13,-703,58,-5,-27,-22,52,-12,32,42
0,-1195,66,-6,-13,-14,51,1,34,9
-7,-1536,71,-17,-12,-12,31,18,34,-9
-9,-1621,40,-28,-16,-16,23,4,-13,-10
19,-1416,43,-3,3,-16,37,15,34,11
26,-1064,49,8,-3,-6,13,7,12,37
15,-534,35,-10,-38,-19,-13,-25,-60,19
14,79,15,-15,-40,-25,-32,-34,-105,2
-5,784,-25,-9,-43,-15,-31,-28,-88,-23
-33,1596,-28,5,-28,-2,-17,4,-5,-27
-40,2279,34,8,-10,4,-15,-7,21,-42
-37,2579,14,8,-6,5,-23,-12,40,-35
-22,2506,-44,-7,-24,-17,-34,0,36,-20
1,2224,-11,0,-15,-21,-17,14,48,-10
25,1612,9,7,6,-12,3,30,67,31
55,869,31,6,11,-8,-8,5,23,74
52,237,58,11,27,-6,2,8,45,77
45,-338,55,6,28,-10,18,0,42,42
55,-832,-30,4,28,-2,20,-10,-23,40
67,-1149,13,-3,29,-8,27,2,-7,45
67,-1169,60,-8,17,-23,9,0,-4,39
38,-1040,-23,-4,-3,-24,0,-5,-32,13
-2,-753,-13,-21,-23,-30,-6,-22,-82,5
-13,-294,-14,-20,-12,-29,-29,-40,-48,40
11,221,-18,-10,-3,-14,-24,-27,-48,52
21,871,10,-13,-5,7,-31,-3,8,29
-14,1513,8,-10,-7,3,-34,3,43,-12
-57,1931,4,-2,-2,3,-40,-15,-2,-52
-75,1917,30,-6,-7,7,-36,-47,-121,-64
-71,1643,38,-14,-8,10,-23,-41,-145,-32
-78,1094,18,-15,-16,-6,-12,-25,-87,-5
-42,237,12,-16,-35,-28,-10,-25,-47,-2
-17,-603,14,-7,-41,-29,-26,-33,-67,-3
-1,-1293,32,6,-33,-22,-28,-20,-35,0
29,-1879,40,13,-20,-13,-12,23,86,10
18,-2364,-11,1,-27,-34,-25,20,40,-14
12,-2563,-82,3,-1,-30,-41,22,29,-27
-6,-2526,-63,11,3,-19,-46,8,13,-24
-21,-2274,-15,30,10,-8,-42,4,18,-12
-20,-1782,30,27,21,-14,-47,5,31,-13
-6,-1162,34,18,34,-8,-66,3,25,5
7,-471,37,22,37,9,-83,-11,-17,26
-11,349,17,5,29,27,-33,4,12,32
-24,1121,-9,-19,15,49,91,21,21,4
-23,1554,-26,-33,-6,22,75,10,-43,-1
-7,1574,-86,-33,-35,-21,13,8,-89,9
9,1411,-164,-22,-33,-23,-3,33,-16,17
17,913,-112,-20,-34,-32,7,17,5,7
29,170,-18,-31,-47,-35,2,3,-55,0
35,-434,-3,-44,-22,-12,35,7,-96,8
36,-898,-15,-43,-7,18,42,14,-114,24
26,-1301,31,-25,19,33,34,24,-91,19
34,-1558,55,-12,18,25,28,40,-20,29
25,-1502,44,-21,3,19,30,22,-45,25
23,-1218,36,-8,0,14,26,16,-32,13
33,-769,42,-5,-6,11,18,26,0,8
27,-118,47,4,12,29,4,46,72,22
30,564,44,8,26,35,-28,54,89,7
29,1377,35,8,14,24,-45,50,73,12
12,2254,30,19,5,21,-44,26,63,36
1,2959,24,18,10,18,-38,3,24,14
-1,3281,12,16,23,32,-54,-1,-16,-8
6,3251,14,23,34,48,-46,-2,-17,-47
29,2989,24,17,34,45,-6,4,-33,-49
50,2411,26,0,21,19,34,7,-4,-21
54,1736,24,10,11,4,19,6,36,11
37,1160,3,-22,-10,-12,-8,-18,-2,67
17,669,-58,-56,-37,-32,-32,-39,-22,65
-24,155,10,-4,-3,-4,-25,17,36,4
-39,263,-8,3,19,13,-14,13,18,-28
-40,490,-27,8,-4,7,-28,-11,-19,-38
-16,916,6,22,-8,14,-41,-8,14,-43
11,1495,-93,5,-13,11,-30,22,48,-23
-3,2076,-98,-9,-11,-1,-48,10,35,-15
-24,2756,9,-5,2,12,-54,-16,7,-30
-33,3401,35,6,10,34,-51,-20,-33,-52
-25,3784,32,0,-1,27,-57,-13,-7,-43
-11,3720,11,-17,-1,12,-61,-28,-23,-17
4,3373,9,-10,11,-1,-53,-21,27,2
18,2777,16,0,8,-3,-38,-15,57,2
11,1869,-16,-26,-14,-8,-15,-26,-46,-18
0,981,-70,-45,-35,-2,17,-27,-100,-29
11,204,-69,-39,-39,-9,30,-21,-103,-33
27,-485,-16,-31,-35,-14,29,0,-93,-28
29,-1069,19,-21,-18,-15,31,33,-16,-5
30,-1382,18,-22,-17,-5,35,36,19,-26
23,-1438,-57,-24,-26,-12,22,6,-51,-37
23,-1292,-38,-19,-23,-32,22,8,-39,-2
28,-909,18,-11,-29,-39,15,5,7,40
-8,-482,38,-11,-33,-30,15,-21,-29,10
-40,30,47,-5,-5,-22,0,-21,-8,-28
-35,668,3,-13,-12,-23,-28,-23,-26,-34
-51,1219,-14,-23,-9,7,-27,-21,-48,-44
-66,1441,34,10,31,47,-2,-4,-32,-61
-77,1283,8,38,54,47,21,-3,-35,-84
-62,924,-90,26,62,48,15,-19,-81,-89
-22,254,-29,17,45,27,20,-26,-117,-76
13,-533,42,14,22,0,22,-5,-32,-21
49,-1220,52,22,15,-11,13,14,26,9
52,-1833,46,33,16,-10,9,34,57,20
32,-2380,34,17,11,-14,11,49,60,35
19,-2721,46,35,30,1,30,52,151,35
19,-2746,45,51,40,18,30,51,160,23
41,-2592,30,32,27,1,14,18,67,54
54,-2231,27,20,12,9,3,-11,-5,87
44,-1702,22,12,8,11,6,-16,-28,91
9,-1135,-13,-22,-27,-7,3,-49,-68,60
-15,-376,-18,-26,-51,-11,-19,-68,-136,14
-35,473,-12,-4,-31,-8,-51,-53,-102,-15
-67,1151,-13,0,-4,18,-55,-30,-27,-59
-81,1398,-11,0,6,22,-54,-5,26,-97
-69,1361,-28,10,4,38,-44,14,14,-98
-45,1100,-7,24,22,63,-20,9,25,-74
-16,528,5,5,4,54,-14,-2,0,-51
24,-44,1,6,-19,21,-5,16,77,10
59,-440,10,12,-22,5,14,25,134,51
43,-841,-2,-6,-24,-11,32,28,118,30
-8,-1224,-26,-17,-34,-24,23,19,37,15
-50,-1140,0,7,-11,-49,0,27,86,46
-26,-874,-45,-14,-36,-67,-47,20,99,60
-44,-379,-149,-33,-48,-52,-50,4,4,18
-25,324,-64,-10,4,3,-25,14,28,17
-6,1116,-77,4,7,18,-24,1,13,33
-4,2053,-64,12,0,0,-34,-24,-32,35
-3,3031,-93,19,15,-9,-27,-26,0,34
-29,3555,-27,4,7,-3,-28,-33,3,36
-36,3524,2,11,17,13,-33,-24,-3,26
-12,3182,12,24,23,10,-3,-9,14,24
41,2497,24,9,6,-13,5,-14,-13,45
92,1527,19,-5,-2,-30,2,-18,-20,82
125,573,41,0,13,-24,4,-15,21,93
105,-327,55,5,11,-36,6,-19,5,60
4,-1104,40,-3,-2,-60,10,-9,-48,0
-75,-1634,27,-24,-23,-84,4,-17,-35,-50
-87,-1796,27,-27,-26,-89,3,-9,2,-69
-102,-1713,39,-11,-14,-62,12,-7,19,-103
-89,-1421,36,0,0,-32,28,0,38,-85
-83,-968,22,6,39,15,60,15,31,-61
-76,-515,16,22,65,31,70,4,-34,-66
-79,151,28,39,84,54,73,-8,-12,-58
-86,934,17,32,73,68,59,-13,-64,-61
-63,1619,18,22,42,72,43,-14,-58,-57
-22,1934,5,16,9,47,19,-6,6,-34
9,1892,-47,0,-2,29,19,15,73,5
36,1749,0,-3,-13,15,13,25,96,45
63,1133,-40,-16,-33,2,24,22,67,64
97,262,-101,-23,-37,-8,26,8,63,67
102,-527,0,-26,-36,-27,8,2,42,78
79,-1137,20,-46,-44,-39,32,20,59,100
28,-1644,6,-47,-46,-39,47,25,93,76
1,-1954,9,-29,-48,-48,2,0,39,18
6,-1924,10,-15,-45,-37,2,-22,-47,-7
7,-1705,30,2,-23,-22,-2,-33,-52,-8
5,-1285,46,-1,0,-9,11,0,-25,-16
25,-703,1,2,2,3,25,26,7,-15
30,-114,11,14,9,5,16,6,15,-9
-16,598,44,6,13,-6,-12,-14,-6,-23
-46,1366,28,4,19,-5,-10,-14,-31,-37
-31,1922,10,7,15,2,-8,-8,-15,-34
-26,2111,-57,6,3,2,-24,-11,-25,-16
-27,2082,-31,14,10,5,-39,-7,0,8
-8,1805,22,11,20,-6,-29,0,21,15
13,1223,27,0,6,-15,-22,-6,-5,39
38,604,46,9,-6,-9,8,-3,-34,32
31,61,41,12,-10,2,44,4,-10,22
31,-408,28,4,-8,-7,50,9,8,25
31,-858,24,2,-10,-12,46,6,-32,18
36,-1098,37,-7,12,1,52,19,25,8
22,-1263,24,-24,-3,-1,64,4,-16,6
11,-1325,-1,-39,-30,-14,50,-9,-78,25
37,-1096,-55,-22,-22,-2,34,-4,4,38
59,-883,-56,-9,-22,-7,27,-17,8,38
60,-685,18,-24,-19,-11,13,-28,-43,60
51,-386,21,-18,-9,1,9,-19,-8,52
0,-216,-57,-16,-14,7,1,-22,-46,24
-34,-423,-111,-15,-23,10,-3,-20,-67,9
-39,-1052,-30,-19,-29,1,-1,-11,-60,-2
-35,-1800,8,-28,-18,3,-1,1,-1,-7
-17,-2816,17,-25,-15,0,8,12,36,-8
-1,-4017,28,-20,-19,-20,11,-5,-8,-9
8,-5006,29,-22,-16,-16,-9,-29,-88,-12
35,-5780,25,-8,-14,-11,-8,-17,-62,-2
83,-6408,13,-17,-22,2,1,-28,-79,17
116,-6773,-10,-48,-23,14,-6,-44,-76,13
140,-6705,-25,-63,-30,-16,6,-26,23,49
179,-6289,14,-39,-19,-43,0,-7,153,114
154,-5661,-14,-38,-35,-57,-25,-18,92,98
132,-4809,12,-42,-32,-52,-37,-45,52,46
107,-3885,18,-28,-20,-18,-26,-33,36,26
32,-2866,10,-20,-22,0,-15,-22,2,37
-50,-1777,6,-17,-29,0,-26,-19,-16,47
-153,-871,-10,4,0,27,-13,-19,-26,14
-179,-330,-9,39,31,53,8,3,-25,-13
-169,-85,32,49,39,50,6,7,-5,-56
-112,-46,-28,32,22,27,-8,13,6,-40
-57,-361,-57,13,14,0,-26,13,19,-15
-83,-788,5,19,11,14,9,-4,-31,-34
-136,-1127,8,21,32,33,52,0,-23,-50
-141,-1328,3,15,53,37,54,16,35,-74
-116,-1407,17,7,55,8,10,23,39,-67
-79,-1316,21,-7,36,-20,-40,23,-45,-35
-44,-965,20,-8,38,-40,-61,35,-21,-9
-9,-539,29,5,50,-58,-88,21,-32,-27
36,29,5,0,42,-46,-73,3,-36,-64
61,691,-38,-35,8,-24,-67,-35,-99,-58
70,1355,-75,-67,-32,0,-33,-61,-127,-45
103,2075,-83,-60,-28,54,-1,-50,-84,-49
106,2728,-39,-32,-3,93,31,-30,-71,-51
19,3111,-23,-9,17,75,62,-3,-38,-28
-115,3030,-73,12,44,36,79,32,26,-20
-191,2632,-49,46,60,4,49,67,19,-21
-171,1984,53,57,59,16,35,59,37,-8
-92,1135,61,42,56,23,36,62,84,-4
-26,319,35,29,27,16,34,58,106,15
6,-351,-38,17,8,7,24,69,98,40
59,-851,-10,-8,-6,-20,14,56,67,37
80,-1185,30,-2,0,-20,27,59,122,44
46,-1241,32,18,6,-22,43,45,111,30
42,-1043,26,11,-2,-30,45,35,69,18
32,-642,29,7,-6,-27,19,23,72,26
0,-41,11,-5,-26,-25,-3,-2,4,17
-13,611,0,-3,-35,-19,10,-9,-49,0
0,1376,20,19,-9,5,0,-7,-7,-10
1,2247,22,25,24,36,-24,-6,19,-22
0,2974,21,33,32,35,-33,-20,8,-9
7,3315,15,34,13,14,-28,-27,-35,-3
18,3282,18,43,8,10,7,-9,-2,-5
42,3031,16,40,-7,1,13,4,-12,0
93,2448,21,26,-16,-15,-1,-6,-103,22
135,1734,35,14,6,-26,12,-2,-59,34
124,1121,30,19,16,-21,9,13,-22,26
67,623,16,5,13,-3,29,31,25,32
8,239,-12,-23,-9,-7,30,38,62,25
-30,67,-9,-8,0,-14,20,32,71,38
-39,252,18,19,12,-1,-7,14,81,68
-1,627,10,11,6,-12,-45,23,100,93
10,1174,-46,2,5,-18,-46,12,52,71
5,1899,-17,9,22,0,-27,-2,37,22
-20,2603,14,10,9,4,-27,-6,-11,2
-35,3395,-48,12,-2,-17,-28,-26,-82,-22
-22,4229,-137,5,4,-18,-30,-39,-71,-35
-29,4798,-121,-6,-18,-18,-60,-53,-141,-50
-42,4971,-37,-11,-34,-32,-71,-59,-166,-58
-58,4846,-16,-5,-31,-41,-65,-54,-137,-38
-64,4416,8,2,-28,-27,-46,-51,-127,0
-22,3666,20,14,-12,-23,-26,-32,-75,55
2,2857,9,23,5,-33,-12,-25,-43,74
37,2122,38,2,0,-23,-7,-17,-90,67
44,1485,36,12,-2,-8,-1,1,-73,54
31,976,6,11,-11,-11,-2,-5,-54,16
11,731,17,-8,-11,-24,-2,-4,0,1
-28,704,24,-8,2,-18,12,3,5,-37
-89,809,20,0,21,-4,16,-3,-73,-91
-119,1109,12,-3,31,3,12,-16,-75,-89
-59,1533,1,1,12,-10,-13,-13,-37,-43
-26,2020,-6,0,-12,-24,-33,-13,-34,-14
-7,2659,-14,-1,0,-13,-40,-6,-56,1
-10,3246,-65,-5,6,-9,-42,-10,-52,-9
-26,3547,-49,-32,-17,-37,-31,-54,-59,-45
14,3487,-41,-71,-62,-69,-47,-115,-104,-60
113,3178,-35,-74,-84,-70,-74,-136,-118,-41
197,2897,-7,-62,-69,-51,-88,-109,-89,1
235,2540,-4,-40,-46,-30,-54,-72,-78,67
221,1713,-61,-4,-14,0,-8,-28,-52,111
74,874,-41,37,38,40,41,17,-9,85
-154,199,72,81,98,83,95,62,25,24
-236,-242,90,66,95,88,96,57,22,-1
-227,-439,52,37,58,65,65,36,-4,-10
-180,-352,21,5,20,44,35,44,55,0
-114,-10,23,0,8,52,36,34,89,-12
-66,761,36,7,24,78,31,7,48,-32
-54,1502,24,-3,33,85,24,-5,14,-23
-84,1986,12,-15,31,51,16,1,13,-44
-72,2829,9,-10,28,40,30,9,63,-61
-34,3489,0,-2,18,39,21,26,52,-48
-35,3679,-12,1,11,13,-6,21,34,-32
-23,3526,-14,-6,1,-1,-25,20,14,-11
19,3157,5,-11,3,0,-25,16,34,10
39,2382,31,4,18,-6,-2,0,59,44
75,1324,29,4,-3,-18,9,8,91,77
122,481,27,-4,-20,-31,8,28,128,108
141,76,14,-8,-24,-34,14,44,128,119
127,193,-84,-3,-17,-36,20,30,76,92
110,-96,-137,-12,-17,-34,16,29,86,40
87,-370,-47,-37,-33,-42,7,20,96,-9
59,-617,5,-37,-39,-39,15,6,68,-15
75,-621,27,-28,-24,-35,11,-14,39,20
49,-325,17,-37,-33,-32,3,-23,-12,5
-8,3,-13,-60,-29,-34,-3,-8,26,-5
-4,472,-25,-67,-22,-28,2,5,42,12
-21,1082,-5,-47,-17,-19,-18,18,-29,-26
-56,1628,3,-11,-1,-3,-48,16,-17,-54
-78,1546,3,20,24,3,-38,36,106,-12
-72,1052,-17,30,39,6,-35,57,181,34
-50,416,13,4,29,3,-21,40,173,17
-11,-441,10,-13,11,0,-3,17,53,-37
62,-1220,30,2,27,15,-10,3,17,-27
63,-1865,26,1,29,42,21,11,51,10
54,-2276,26,11,35,60,51,31,32,-7
74,-2693,35,32,48,58,68,41,23,-53
92,-2845,48,41,44,35,72,62,66,-27
63,-2572,45,34,38,32,50,47,51,1
22,-1685,25,28,16,28,2,32,2,29
1,-926,1,-10,-20,0,-16,13,-38,40
13,-555,-22,-30,-39,-8,-40,-29,-107,41
-23,29,-72,-31,-28,14,-40,-28,-87,27
-96,887,-37,-17,-10,43,-18,-10,-76,-58
-141,1751,-18,5,-1,45,-22,-28,-130,-128
-140,2144,-29,5,-2,27,-34,-55,-117,-144
-106,2129,-42,10,15,8,-33,-46,27,-114
-44,2000,-107,-6,4,-19,-40,-35,52,-36
39,1784,-24,-5,-9,-47,-59,-21,117,84
104,1261,22,-8,-25,-80,-89,-6,168,194
141,445,55,12,-1,-71,-80,-10,86,209
171,-37,85,53,31,-17,-22,-2,93,111
145,-213,69,57,37,-2,13,24,88,23
137,-503,38,46,37,-10,26,63,131,50
133,-388,5,30,14,-25,22,49,108,77
124,-80,-53,28,6,-3,53,39,9,-18
157,528,-37,10,-14,-18,45,42,-21,-67
182,1250,-44,-31,-52,-61,-18,22,-5,45
113,1874,-30,-54,-68,-76,-63,-18,10,61
-3,2638,-16,-28,-44,-67,-47,-47,-16,-85
-132,3553,-15,-4,-16,-14,-6,-45,-65,-148
-225,4139,-46,-3,-7,36,25,-16,-15,-103
-261,4136,-103,8,15,103,69,7,27,-42
-250,4040,-42,34,37,156,83,30,34,-22
-212,3894,54,68,64,171,102,35,6,-104
-157,3729,70,68,75,124,120,49,-9,-129
-69,3481,70,52,46,26,107,66,-6,-102
-24,3184,60,24,18,-49,38,56,11,-31
10,2913,-9,1,-5,-62,0,12,-21,2
5,2883,-85,2,0,-49,-12,8,10,12
-32,2856,7,-3,-15,-57,0,7,30,-1
-41,2725,22,-36,-57,-83,-25,-24,-56,-18
73,2577,33,-18,-55,-82,-50,-46,-83,20
190,2422,65,9,-20,-43,-51,-32,-5,56
221,2289,68,14,-5,-22,-39,-11,12,50
158,2165,16,20,2,-14,-22,7,22,28
15,2037,-86,37,33,22,18,15,23,-10
-132,1911,-79,51,40,48,44,15,27,-25
-173,1799,-13,11,-2,9,9,-9,15,2
-113,1696,-1,-20,-27,-32,-36,-44,35,39
21,1592,5,-38,-43,-54,-55,-59,35,72
69,1499,-30,-67,-83,-98,-79,-85,8,99
48,1390,-68,-94,-111,-118,-97,-109,-30,139
78,1298,-51,-76,-92,-88,-69,-62,2,242
140,1205,-43,-66,-68,-50,-29,10,71,377
148,1133,-55,-70,-81,-40,-48,7,21,525
157,1070,-101,-96,-110,-69,-109,-32,-30,665
148,1001,-61,-68,-83,-48,-68,0,34,571
44,928,-59,-34,-34,17,74,54,69,152
-46,863,-38,-20,-10,28,100,17,-99,-431
-44,814,63,51,54,61,25,-20,-199,-648
-28,773,122,116,112,105,24,-5,-173,-491
-5,737,93,80,68,75,-4,-18,-152,-320
15,693,29,7,0,23,-68,-57,-173,-228
-51,650,-94,-43,-25,7,-67,-28,-124,-246
-81,602,-173,-19,-2,20,-43,15,0,-238
-6,564,-109,12,17,23,-37,10,51,-99
184,521,20,-3,-12,-20,-86,-56,-50,101
324,416,77,-14,-35,-64,-125,-76,-5,206
198,185,81,-3,-26,-59,-109,-42,54,157
-27,-224,28,-31,-34,-42,-59,-5,57,161
-302,-769,12,-8,0,1,-9,2,46,-37
-503,-1292,-3,32,39,38,41,-1,-89,-266
-467,-1293,64,99,100,80,78,28,-101,-427
-337,-849,109,131,112,92,68,19,-96,-442
-266,-866,81,79,66,82,43,7,-96,-320
-172,-830,43,26,18,42,19,6,-70,-176
-70,-621,9,-9,0,-5,-9,-7,-10,-54
-26,-324,-15,-35,-25,-39,-48,-43,-22,-4
15,1,-34,-76,-70,-85,-86,-88,-45,11
114,191,-65,-105,-95,-124,-108,-76,58,90
176,300,-42,-68,-72,-107,-93,-39,150,208
184,418,-28,-54,-74,-130,-129,-51,105,314
179,244,-40,-83,-113,-184,-189,-94,-2,367
91,-413,-31,-63,-74,-136,-147,-59,-17,294
-40,-1481,-72,20,36,-19,-5,46,53,87
-121,-2744,-97,96,127,70,101,102,66,-137
-277,-3887,-78,99,118,73,133,75,21,-380
-366,-5042,-28,9,26,24,113,6,-28,-456
-174,-6280,-30,-52,-31,-2,76,-30,-48,-253
12,-7461,-34,-79,-53,38,160,-23,-45,-20
54,-8228,-3,-40,-10,87,236,17,-11,85
82,-8811,10,-11,15,59,165,16,-4,113
246,-8876,25,-39,-29,-17,46,-28,20,119
269,-8677,-23,-54,-60,-45,-16,-66,-70,-82
111,-8387,-36,-68,-65,-41,-6,-59,-131,-164
-44,-7730,-27,-73,-52,-26,-5,-68,-140,-119
-51,-7096,-31,-44,-28,-17,8,-106,-93,-9
69,-6732,-21,-29,-18,-27,-10,-128,-62,122
65,-7069,23,18,47,41,16,-85,-89,-27
-80,-8294,50,78,129,117,72,-30,-90,-215
-280,-8906,15,62,108,104,58,-63,-173,-235
-465,-9177,17,39,66,60,32,-118,-220,-222
-324,-9268,16,9,31,25,-9,-116,-173,-150
-166,-9086,-23,-45,-23,-34,-52,-105,-45,-70
-117,-8794,-70,-85,-66,-70,-69,-84,63,54
51,-8193,-61,-98,-101,-94,-80,-59,87,275
212,-7042,-9,-72,-76,-82,-89,-25,195,502
226,-5629,28,-35,-37,-78,-148,8,329,585
270,-4286,9,-14,-13,-124,-251,-22,315,469
195,-2915,-69,31,30,-115,-264,-40,212,193
17,-1461,-29,56,66,-96,-265,-62,60,-164
-67,71,6,75,97,-116,-324,-144,-125,-291
-152,1499,-55,67,118,-109,-353,-172,-150,-186
-164,2708,-108,9,91,-40,-296,-143,-44,-48
-115,3600,-120,-50,67,80,-191,-120,-61,-62
-126,4104,-90,-74,55,203,102,-83,-187,-321
-167,4859,-24,-58,14,275,481,51,-156,-438
-97,6103,41,28,7,208,498,166,77,-329
-6,6373,137,134,-4,77,313,132,94,-285
61,6037,166,122,-95,31,231,72,-19,-111
57,5790,113,46,-105,72,194,37,-90,-77
40,5883,30,-19,-97,65,169,0,-136,-46
99,6086,-47,-46,-102,10,110,-3,-104,101
170,6257,-107,-23,-97,-33,58,-22,-83,243
257,6598,-17,-28,-85,-65,-3,-96,-118,314
415,6964,12,-59,-104,-92,-80,-164,-146,376
473,6980,-3,-53,-103,-77,-104,-135,-105,380
317,6783,-59,1,-30,-14,-44,-58,-23,220
5,6514,-21,37,17,55,0,6,51,13
-253,6156,21,4,-8,50,-6,25,67,-70
-289,5785,-6,3,-5,50,-5,29,25,-145
-188,5433,21,61,56,88,19,39,-9,-128
-60,5093,73,79,72,84,-2,39,38,94
10,4748,3,29,20,35,-27,36,149,455
20,4310,-41,-38,-21,20,6,105,273,645
72,3759,-22,-60,-26,19,39,109,249,271
53,3178,46,-10,4,24,39,62,63,-228
18,2397,81,23,31,32,2,12,-51,-282
71,1619,72,24,24,10,-33,-10,-44,-101
102,1124,69,18,5,22,31,-3,-61,-95
89,689,12,-19,-41,1,43,-9,-42,-147
-60,361,5,-26,-43,-12,0,0,-8,-158
-244,407,29,2,10,28,18,6,-23,-189
-229,788,36,12,36,27,19,-45,-88,-170
-188,1192,12,24,58,44,26,-38,-94,-110
-247,1678,5,32,73,70,31,-18,-77,-78
-224,2022,15,11,43,45,8,-45,-107,-41
-123,2216,42,5,28,21,-32,-86,-155,-21
40,2195,67,21,34,3,-55,-102,-147,61
225,1971,85,27,37,-1,-42,-69,-63,313
345,1511,48,-6,-3,-53,-76,-92,-45,511
380,843,-34,-64,-77,-120,-134,-163,-136,429
329,762,-7,-24,-18,-31,-38,-76,-130,224
143,1119,72,40,50,57,40,42,-31,55
-31,607,76,38,59,77,76,149,76,5
-134,75,63,29,44,38,44,121,29,-177
-142,-242,76,49,61,12,-4,36,-37,-347
-118,-566,57,62,71,36,15,71,40,-213
-97,-891,-7,31,49,33,3,88,142,-56
-101,-1006,-80,-40,-20,-27,-61,61,349,87
-70,-946,-69,-39,-32,-47,-89,47,363,161
85,-945,-34,-22,-26,-47,-97,6,229,142
125,-841,82,47,21,-22,-105,-63,57,9
-153,-805,94,84,81,55,-1,55,68,-121
-288,-523,38,48,67,63,19,96,78,-283
-149,330,30,34,25,49,13,53,-51,-446
15,-3,22,26,34,40,65,19,-4,-317
159,-1143,-23,-17,2,-16,42,-27,88,151
188,-2401,-73,-23,-19,-23,38,-43,-7,228
28,-3765,65,52,45,23,60,-54,-163,-126
-93,-4777,130,103,85,18,28,-83,-154,-345
33,-5262,37,29,23,-70,-38,-50,126,-7
225,-5818,-87,-81,-82,-150,-75,-4,269,495
252,-6365,-145,-122,-120,-163,-41,42,233,696
95,-6757,-202,-151,-148,-173,-31,35,174,614
-7,-6801,-135,-117,-125,-153,-14,7,142,535
166,-6348,-62,-72,-79,-93,9,41,141,644
359,-5713,40,7,-7,-5,43,128,229,614
374,-5004,147,88,93,96,105,154,179,292
229,-4010,128,63,79,90,66,69,55,-16
76,-3241,39,-10,0,-15,-48,-48,59,-310
211,-2684,41,-25,-10,-49,-90,-40,116,-513
194,-2516,30,-38,-3,-74,-113,-33,136,-504
7,-2819,-19,-66,1,-75,-96,7,169,-317
19,-3225,-66,-87,-10,-62,-55,66,175,-17
120,-3396,34,55,75,-6,-25,57,130,-57
131,-3349,155,227,187,78,1,20,-14,-319
133,-3014,143,187,151,58,-3,-23,-46,-345
180,-2052,39,6,5,-58,-115,-75,-29,-146
129,-488,-72,-126,-116,-149,-233,-95,15,30
-258,748,-76,-94,-71,-103,-195,-33,56,-163
-621,2416,-29,-10,11,-46,-156,34,3,-367
-541,4612,-5,8,17,-57,-136,69,20,-85
-198,6157,57,29,23,-57,-81,67,88,177
80,7111,109,64,28,-29,-68,40,58,18
217,7009,139,80,31,-9,-78,49,122,-87
194,6616,107,59,27,23,-72,23,155,202
53,6230,-51,-57,-54,42,-31,-7,233,798
-55,5857,-136,-107,-73,37,-41,-85,187,826
-215,5506,0,67,94,115,19,-110,-232,-99
-494,5183,134,232,243,185,117,26,-536,-949
-649,4859,129,245,256,151,95,93,-554,-1194
-552,4562,46,140,162,108,81,66,-402,-977
-424,4303,-10,60,98,133,175,44,-264,-552
-336,4045,49,90,105,147,189,4,-208,-292
-282,3804,72,95,116,142,269,20,-192,-300
-279,3595,-38,23,84,92,381,79,-120,-284
-208,3376,-163,-31,48,-3,210,73,-51,-116
16,3178,-235,-105,-31,-111,-35,10,93,198
77,2981,-270,-193,-96,-181,-150,-61,216,334
110,2786,-260,-247,-154,-192,-168,-119,149,411
167,2630,-240,-264,-216,-156,-144,-84,93,381
106,2484,-229,-210,-234,-91,-51,83,290,276
309,2330,-87,-131,-246,-111,-84,92,275,285
725,2172,99,-34,-242,-133,-160,13,98,397
833,2042,179,34,-160,-51,-64,44,-32,449
516,1924,161,64,-23,37,38,107,4,315
-22,1796,109,59,54,42,-42,70,7,-107
-265,1636,71,94,90,-17,-174,-43,-50,-327
-278,1250,74,155,145,22,-183,-46,-156,-515
-182,587,100,122,103,46,-117,-36,-254,-497
-50,-410,38,28,12,16,-7,-70,-130,-151
-32,-1555,-24,-34,-32,-36,-34,5,193,126
57,-2230,62,24,36,6,-77,20,181,36
76,-2679,89,30,47,91,-15,-39,32,67
-71,-2970,26,-5,-6,124,71,-60,-119,133
-96,-2994,-22,-34,-46,116,115,-20,-99,419
-93,-2982,-4,-33,-44,131,151,-32,-198,200
-175,-2893,-63,-90,-117,102,140,-151,-429,-170
-199,-2653,-47,-73,-108,118,194,-175,-567,-330
-30,-2366,-86,-22,-63,113,159,-127,-568,-280
374,-2313,-80,-4,-61,65,41,-62,-411,-70
465,-2489,-3,-8,-66,42,33,110,-103,-26
428,-2848,-24,-51,-92,28,60,331,400,-43
291,-3279,-119,-142,-163,-32,22,410,698,60
312,-3818,-141,-165,-184,-86,-17,321,693,283
528,-4606,-23,-102,-160,-146,-84,89,379,505
29,-5183,106,35,-27,-76,-66,-33,131,358
-407,-4445,193,165,134,100,59,89,123,116
-345,-2827,149,164,149,155,120,170,135,13
73,-1828,23,47,21,15,-20,84,187,235
217,-1349,-130,-81,-122,-157,-200,-38,271,413
-121,-969,-96,-73,-109,-117,-145,11,307,90
-515,-800,63,84,63,56,15,83,113,-582
-584,684,109,155,135,135,55,99,-52,-909
-596,2127,-11,48,67,81,10,123,1,-804
-506,3409,-100,-35,6,27,-40,186,109,-410
-232,4232,-60,-11,-8,-34,-111,121,64,12
-147,4352,40,79,47,-10,-144,13,-150,-61
-280,4187,38,149,121,90,-106,-56,-371,-451
-346,3925,-54,112,84,142,5,-99,-418,-441
-110,3637,-48,41,-7,95,39,-127,-317,-124
103,3380,51,26,-23,50,60,-162,-318,86
29,3162,67,56,31,105,174,-215,-579,-7
-9,2954,42,124,115,198,250,-239,-729,-74
207,2765,81,151,110,149,136,-311,-695,116
158,2603,44,142,87,79,17,-298,-541,52
-39,2476,24,70,25,-3,-52,-167,-198,-207
-18,2404,30,-28,-63,-89,-99,69,434,-158
185,2313,-11,-113,-143,-162,-149,250,880,230
274,2182,-30,-74,-110,-128,-152,200,651,194
201,2052,-46,31,22,-2,-67,158,391,72
135,1937,-36,-31,-28,-64,-154,83,334,391
-5,1832,-122,-150,-150,-216,-292,-43,274,571
-271,1726,-36,-61,-55,-137,-201,-13,142,-16
-278,1611,69,60,70,10,-99,48,35,-542
-37,1504,61,50,55,34,-104,53,130,-294
181,1417,-29,-15,-10,13,-129,47,254,220
284,1342,-60,14,43,67,-29,49,32,-73
285,1283,88,97,146,143,185,103,-137,-323
107,1191,65,44,101,110,283,114,-94,49
-52,1106,-72,-96,-48,-59,88,58,125,726
-151,1043,-58,-102,-66,-103,-34,-49,-27,509
70,984,109,34,23,-28,-40,-147,-357,-162
344,925,140,36,-25,-122,-146,-209,-264,-84
335,875,-16,-125,-188,-300,-290,-103,234,707
293,830,-86,-156,-206,-293,-299,80,441,976
261,782,-30,-44,-78,-152,-235,38,90,378
134,734,-59,-47,-39,-91,-173,-70,-120,-144
7,685,-121,-49,-12,-26,-21,12,-7,-327
116,638,-57,-37,-22,-18,-80,29,75,-247
-263,599,98,54,90,87,-58,157,282,-306
-584,565,96,79,156,155,36,227,182,-609
-299,534,79,49,134,124,107,66,-130,-509
-116,496,50,35,122,157,260,18,-139,-174
15,464,54,60,97,128,185,13,-142,-86
50,435,85,133,98,50,30,-19,-150,-165
-140,407,48,135,94,22,-36,-64,-282,-545
-26,385,20,93,69,13,-11,-4,-187,-461
257,355,2,14,-16,-81,-6,113,110,151
126,329,-19,-45,-95,-162,-122,30,41,369
-94,309,-50,-28,-38,-100,-140,-151,-288,93
-161,312,-179,-17,24,22,-42,-124,-311,96
237,294,-220,-73,-71,-51,-108,-191,-261,561
639,268,-147,-143,-179,-244,-346,-364,-412,630
946,250,-61,-147,-194,-366,-560,-389,-349,410
749,241,66,-24,-53,-272,-494,-182,84,262
-249,217,-13,-12,33,-142,-309,248,748,369
-720,193,-200,-170,-110,-318,-531,108,595,456
-737,182,-76,-66,-55,-357,-667,-207,-38,-201
-646,173,231,247,251,-60,-488,-156,-202,-684
-443,175,164,225,236,124,-256,-80,82,-72
-369,179,-202,-48,49,207,95,-80,242,82
4,171,-219,-51,85,362,451,-63,-55,-594
226,154,31,149,237,428,610,18,-190,-1014
94,134,146,220,272,330,553,20,-147,-769
45,108,130,121,159,113,310,0,-6,-169
15,96,-21,-100,-117,-147,45,-90,135,295
-248,93,-193,-218,-254,-156,61,6,402,321
-665,97,-82,-6,-52,207,341,112,81,-616
-218,96,107,92,-33,313,342,-139,-492,-630
94,99,173,95,-9,343,415,-250,-801,-468
120,92,169,140,122,408,632,-42,-799,-662
499,84,75,62,51,195,502,7,-609,-276
806,80,-85,-152,-205,-124,179,-71,-290,498
1064,68,-237,-351,-398,-324,-91,-73,257,1318
1025,63,-255,-334,-368,-323,-181,-27,575,1670
167,68,-47,-59,-64,-49,84,47,391,807
-685,62,56,75,120,162,326,66,-55,-429
-676,67,26,27,64,73,168,-79,-457,-695
-335,66,-64,-93,-93,-142,-79,-166,-329,67
97,64,-145,-204,-224,-325,-262,-180,-24,746
349,48,-96,-183,-215,-333,-283,-146,190,766
127,42,-110,-160,-141,-225,-160,224,701,362
74,39,-151,-189,-136,-221,-163,425,1095,222
49,33,-107,-153,-126,-198,-170,333,918,117
-76,35,38,-32,-43,-132,-221,124,531,-83
-276,33,251,142,132,-41,-247,-145,-60,-938
-604,31,192,163,195,70,-135,-57,-121,-1355
-485,21,188,209,265,184,-83,-95,-214,-1644
-440,21,246,308,368,274,-106,-166,-484,-1821
-483,24,61,245,293,238,-90,-222,-470,-1739
-469,24,36,265,247,217,-61,-207,-392,-1513
-446,29,234,350,277,282,-82,-173,-352,-1031
-742,32,210,259,236,310,25,-176,-185,-389
-692,37,22,84,88,345,592,-43,-118,-126
129,20,-28,-42,-56,311,1009,124,-24,333
1124,13,-45,-159,-220,52,537,-22,89,1082
1324,25,-47,-194,-283,-182,137,-227,-24,946
882,28,18,-96,-196,-218,25,-271,-189,452
156,35,2,-32,-56,-71,152,-21,-107,71
-401,36,-49,-13,35,80,269,184,41,-119
-674,38,12,112,180,255,361,128,-316,-754
-291,45,-14,26,83,123,177,-109,-552,-382
513,40,-56,-98,-100,-150,-154,-335,-282,802
405,28,-45,-40,-13,-68,-64,-132,34,899
-379,23,-24,91,141,119,161,189,159,295
-485,22,-85,27,53,20,0,81,90,-3
-83,32,-175,-166,-161,-224,-337,-89,364,-21
78,25,-33,-122,-160,-256,-403,-85,558,-319
-412,20,77,10,10,-88,-181,141,592,-608
-668,30,36,53,106,-12,-40,250,370,-955
-43,30,25,31,69,-105,-125,187,221,-681
838,12,39,-28,-72,-294,-390,19,209,185
1327,7,19,-120,-190,-439,-590,-171,221,615
1236,7,-136,-273,-326,-459,-487,-257,136,516
367,10,-99,-184,-185,-154,-221,-31,146,1
-150,-4,8,-16,8,175,17,249,367,-77
-50,-5,-65,-82,-62,182,32,129,380,186
-471,-10,-128,-19,23,235,16,-25,99,-352
-1190,-25,45,265,331,526,374,3,-434,-1413
-1179,-23,258,386,441,602,611,-6,-771,-1684
-807,-15,225,277,349,528,666,-20,-627,-1294
-452,-53,140,153,225,411,610,-48,-416,-809
-445,-138,134,164,223,324,431,-66,-437,-745
-77,-414,123,135,169,212,280,-107,-479,-518
432,-1179,90,29,21,68,173,-193,-617,-21
619,-2303,-49,-140,-182,-107,80,-250,-598,700
459,-3479,-197,-268,-283,-219,74,-155,-311,1085
214,-4574,-221,-264,-225,-205,89,18,-40,874
62,-5457,-160,-204,-178,-214,-3,30,26,389
63,-6034,-151,-218,-217,-286,-160,7,149,375
169,-6158,-186,-265,-272,-326,-254,135,512,610
431,-5882,-196,-269,-279,-304,-318,248,769,941
615,-5235,-184,-241,-211,-230,-362,284,800,1024
679,-4196,-8,-80,-87,-171,-432,122,462,514
957,-2981,115,-8,-59,-232,-556,-36,309,212
946,-1791,32,-120,-158,-300,-511,-79,478,473
351,-719,-52,-181,-201,-262,-251,-115,355,447
-159,-231,-8,-46,-44,-99,75,-62,106,47
-530,78,19,75,134,121,373,-30,-217,-549
-824,695,113,238,303,402,561,51,-604,-1574
-926,1120,271,434,417,559,504,-43,-910,-1791
-582,1750,338,474,413,544,394,-239,-1096,-1090
-148,2029,275,350,267,342,244,-270,-981,-427
-100,1790,69,159,132,28,-71,-208,-645,-300
-332,1534,-47,127,171,-148,-311,-15,-165,-536
-492,1717,12,212,285,-144,-342,212,335,-673
-246,2147,42,182,215,-265,-502,177,552,-292
26,2197,67,165,184,-291,-614,77,476,-277
168,2084,-34,56,66,-217,-567,43,310,-422
180,1974,-64,-72,-129,-91,-435,-51,70,-111
185,1871,-186,-210,-316,31,5,-32,-16,296
309,1771,-250,-308,-475,113,668,160,142,707
572,1674,-255,-349,-506,20,709,204,274,1233
1140,1570,-326,-450,-552,-301,211,16,270,1486
1342,1475,-372,-521,-621,-547,-224,-155,319,1417
859,1380,-333,-423,-501,-479,-315,-94,505,1390
280,1286,-322,-268,-280,-255,-174,153,711,1400
-420,1215,-243,-115,-53,-54,-37,295,706,1056
-718,1130,73,198,276,230,136,356,550,450
-1029,995,554,653,704,624,448,356,221,-738
-1269,776,645,753,815,782,679,195,-367,-1707
-939,491,455,514,581,618,663,188,-553,-1530
-541,-248,150,156,134,46,49,70,-200,-1614
-480,-471,-12,34,25,-53,-29,101,248,-1034
193,-448,-82,-80,-100,-204,-96,1,317,-377
242,-407,48,49,35,-113,-117,29,-11,-538
396,-111,211,141,125,-34,-193,74,-168,-595
848,442,223,49,21,-73,-380,-73,-174,-122
1033,635,21,-144,-179,-191,-567,-199,78,686
328,646,-366,-331,-279,-155,-260,32,474,610
-259,620,-452,-357,-237,-62,24,253,540,68
-581,420,-150,-88,-9,69,134,180,65,-790
-995,61,102,208,207,245,270,19,-453,-1407
-1131,-343,234,386,379,491,548,-62,-630,-1575
-569,-845,233,329,319,437,484,-58,-397,-933
265,-1066,139,146,133,260,381,-97,-338,-344
805,-981,-3,-43,-63,56,213,-192,-413,26
715,-1363,-73,-159,-215,-127,4,-352,-705,-136
571,-1825,-188,-266,-309,-259,-189,-422,-584,195
686,-1918,-221,-313,-341,-302,-314,-315,-73,1053
973,-1775,-59,-251,-328,-364,-458,-262,321,1633
1049,-1598,-4,-218,-307,-407,-491,-193,713,2271
458,-1280,-205,-339,-362,-415,-277,38,893,2175
-999,-1299,-255,-168,-42,18,394,408,448,86
-1545,-1077,108,312,494,579,795,465,-263,-1705
-1461,-584,384,570,697,707,637,109,-954,-2184
-1246,-190,330,469,542,496,362,-215,-1235,-2065
-575,-4,56,89,100,105,133,-377,-1136,-1392
185,-110,-50,-103,-116,-48,85,-283,-534,-769
347,-520,-113,-188,-200,-147,-6,106,531,162
574,-911,-136,-231,-273,-337,-297,141,882,740
537,-1470,-67,-168,-211,-354,-355,212,787,323
-126,-2065,-37,-29,-25,-147,-158,289,339,-195
-50,-2278,-138,-51,-54,-136,-153,110,67,365
465,-2289,-96,-119,-183,-219,-229,-23,65,665
659,-2390,39,-128,-196,-122,-163,-120,-11,389
362,-2267,-70,-177,-163,64,61,9,277,626
-115,-1517,-31,-71,-27,156,256,177,420,464
-259,-701,-7,-11,27,-32,67,75,242,74
-163,-124,-106,-44,16,-229,-223,107,391,386
-485,516,57,161,226,-93,-257,206,133,-424
-731,1262,256,366,420,63,-289,85,-390,-1651
-557,1802,213,292,332,47,-441,-97,-529,-1640
-240,2063,86,133,137,-10,-471,-191,-482,-868
12,2039,149,139,106,51,-272,-328,-776,-493
101,1771,14,-22,-31,114,54,-376,-751,122
-56,1213,-173,-165,-104,342,760,-147,-567,470
-345,285,-108,-18,64,648,1098,5,-701,-186
-123,-632,80,94,140,629,882,-137,-985,-806
641,-1330,172,96,88,420,605,-390,-1268,-571
895,-2116,98,29,14,249,488,-457,-1180,148
631,-2953,-109,-92,-119,33,336,-324,-763,619
531,-3433,-104,-123,-181,-157,130,-184,-342,357
514,-3648,-24,-168,-228,-334,-67,-49,247,191
309,-3651,-231,-391,-435,-561,-276,304,1412,847
-100,-3486,-406,-483,-483,-557,-266,935,2228,806
326,-2950,-257,-298,-310,-493,-363,1067,2090,524
835,-2381,-88,-79,-111,-451,-535,782,1675,763
965,-1775,42,82,20,-505,-800,314,1007,884
534,-1394,175,149,48,-564,-886,201,929,1149
-512,-1555,132,165,123,-388,-680,342,1028,719
-1138,-1750,180,300,328,-15,-505,111,231,-719
-1575,-2198,23,335,490,430,-182,0,-399,-1889
-1257,-2357,-72,241,460,704,221,73,-467,-1920
-463,-2415,-82,19,218,644,563,4,-375,-1125
-207,-2811,-153,-162,1,430,719,27,-165,-521
23,-3208,-136,-229,-125,239,781,67,48,-104
397,-3204,-100,-234,-247,26,604,-21,171,587
77,-3246,25,-8,-123,34,488,-37,-64,328
-41,-3275,313,286,90,232,589,-82,-645,-485
-136,-3113,231,175,43,170,428,-304,-929,-308
-171,-2584,105,42,-17,49,199,-404,-915,23
-367,-1704,118,61,19,11,63,-385,-924,-383
-610,-1217,129,119,78,18,-6,-187,-523,-506
-576,-729,212,222,181,160,163,167,85,-685
129,319,116,109,49,28,65,4,-168,-556
1147,1638,-133,-120,-196,-355,-434,-454,-535,215
1297,2299,-78,-155,-264,-583,-851,-671,-481,654
704,2285,-102,-97,-162,-420,-804,-449,114,578
209,2394,-126,-123,-110,-162,-488,-98,541,637
183,2294,-154,-183,-149,0,-92,159,574,416
174,1985,-181,-201,-156,113,323,435,765,287
197,2074,-173,-203,-171,61,373,422,868,781
79,2239,-73,-77,-34,198,599,331,540,486
181,2479,98,102,149,311,639,443,404,55
292,2245,273,259,280,228,377,338,272,37
321,2227,220,135,91,-196,-80,125,486,433
-89,3035,-50,-116,-164,-540,-417,138,739,222
-144,3788,-142,-133,-141,-476,-482,65,413,-564
80,3743,-41,59,61,-202,-418,-105,-65,-741
619,3610,127,140,103,-149,-501,-253,-21,135
360,3620,209,156,129,-68,-400,-258,15,-78
-439,3483,51,103,132,153,-38,-44,49,-516
-788,3281,-57,45,125,404,342,87,-87,-747
-404,3094,-71,-15,46,492,453,9,-247,-437
208,2896,-94,-110,-106,270,351,-62,-59,137
-124,2584,-15,-26,-39,141,334,39,55,84
-644,2066,119,143,132,184,327,25,-194,-351
-734,1236,77,133,148,162,362,14,-334,-279
-743,233,-125,-5,56,8,239,-48,-528,41
-751,-553,26,137,205,14,47,-181,-1009,-517
-691,-952,230,349,385,154,-10,-258,-1275,-1004
-423,-1161,221,333,364,104,-114,-308,-1207,-619
69,1107,-304,-344,-334,-119,45,237,1035,-108
441,2148,-516,-618,-567,-37,480,111,626,720
743,2323,-284,-452,-479,-62,291,-185,119,1405
643,2199,-25,-217,-307,-181,-18,-396,-128,1488
223,2019,-193,-254,-269,-255,-70,-102,438,1898
90,1888,-177,-133,-60,-18,126,344,702,953
758,1700,14,-19,26,107,141,280,321,43
1024,1446,140,103,98,188,183,-48,-347,-602
1187,1147,52,45,-4,-26,-6,-270,-537,-572
706,727,-205,-247,-288,-373,-207,-115,-53,35
-48,680,-282,-328,-351,-523,-329,136,493,26
-553,729,123,103,91,-183,-135,432,683,-816
-697,495,302,367,419,195,167,713,853,-814
-520,398,59,206,295,124,80,591,852,-400
-205,466,28,183,226,73,-73,247,185,-831
-10,530,336,347,326,109,-226,-95,-413,-1205
-314,458,298,342,345,198,-169,-105,-346,-963
-888,364,27,177,301,423,259,-15,-177,-368
-476,369,-18,33,157,289,180,-184,-257,-9
164,316,-19,-72,8,-24,-159,-336,-411,-181
109,-153,-26,-57,26,-156,-268,-282,-221,-287
-86,-1043,-46,10,63,-122,-172,-12,243,-85
-299,-2053,-23,105,158,76,220,352,361,-444
-343,-2815,53,173,244,296,541,465,-27,-728
-138,-3045,-53,36,113,225,374,266,-56,-66
-70,-3880,-107,-111,-105,-59,13,39,197,505
540,-4844,-20,-179,-275,-412,-418,-285,139,528
1017,-5879,-21,-206,-316,-568,-597,-281,253,794
607,-6658,-69,-234,-313,-610,-710,-185,460,1058
364,-7061,-84,-263,-314,-553,-760,-296,246,847
317,-7207,-87,-187,-144,-271,-528,-143,175,846
-135,-7072,3,43,175,187,-17,286,256,344
-757,-6658,187,352,527,682,728,518,-175,-919
-832,-5837,326,455,583,783,969,308,-499,-1156
-505,-4665,299,346,401,459,459,-47,-470,-931
-294,-3406,98,97,151,202,170,-52,-82,-905
-440,-2644,-102,-36,-15,188,265,-13,-274,-1300
-496,-2680,-113,15,-42,281,420,0,-626,-1379
-310,-2897,73,114,64,238,337,-15,-708,-893
-24,-3199,172,114,119,119,115,-109,-638,-301
63,-3422,94,-30,100,85,5,-164,-563,75
263,-3783,-50,-131,92,70,-73,-97,-222,392
820,-3956,-140,-195,-44,-70,-131,26,397,943
1341,-3502,-80,-220,-212,-277,-235,-39,699,1332
985,-2980,-6,-159,-240,-336,-325,-16,660,888
56,-2946,-181,-218,-259,-356,-228,344,1126,620
-388,-2725,-141,-144,-160,-291,-82,581,1240,187
-29,-2146,177,77,-15,-164,-167,237,478,-153
266,-1148,263,110,-43,-176,-378,-162,-38,-154
123,-66,106,-29,-183,-337,-502,-225,-1,76
-179,798,-95,-142,-233,-366,-400,-23,173,216
-429,976,15,-26,-103,-228,-224,-22,-225,-453
-667,725,118,85,7,-94,-236,28,-496,-1013
-434,444,98,38,-9,-107,-293,126,-185,-596
-471,-162,23,-32,-24,96,124,123,4,-400
-558,-1165,-60,-52,-2,333,440,72,-115,-700
98,-2547,-77,-115,-74,239,355,-12,-223,-548
740,-4401,-89,-189,-207,45,352,-170,-218,327
693,-5964,17,-98,-169,-71,186,-379,-303,1194
323,-7161,124,145,32,11,132,-491,-834,1069
385,-7954,221,223,110,102,153,-604,-1358,856
448,-8471,74,-18,-118,-33,111,-536,-1135,989
299,-8857,19,-124,-209,-108,22,-177,-507,350
535,-8868,-43,-209,-278,-250,-246,30,356,183
787,-8687,-183,-293,-332,-327,-304,115,1039,346
304,-8612,-45,-68,-38,-115,-81,319,1146,-67
-515,-8432,259,311,374,252,212,590,896,-620
-648,-7929,267,331,377,245,114,492,441,-825
-902,-7316,133,209,261,173,-86,328,-54,-1439
-1188,-6945,-42,76,133,197,-40,162,-285,-1570
-883,-6651,-183,-76,-34,171,196,37,-288,-1027
-276,-6348,-145,-113,-99,20,143,-70,-167,-588
243,-6057,-20,-27,-13,-95,78,42,55,-280
518,-5706,32,24,55,-170,120,238,192,0
680,-5377,-61,-66,-39,-380,-217,242,291,422
767,-5062,-33,-103,-98,-556,-628,42,143,702
544,-4767,85,-69,-114,-592,-737,-131,-29,755
92,-4497,-83,-163,-186,-420,-417,-84,-126,794
-360,-4240,-157,-145,-103,-96,-120,-95,-270,488
-624,-3988,-211,-163,-78,269,56,-127,-505,-125
-725,-3746,-209,-164,-51,552,200,-194,-841,-1008
-924,-3521,54,50,128,661,328,-353,-1182,-1246
1228,-3278,11,-172,-298,-323,-341,-93,776,1124
1232,-3079,-163,-224,-277,-488,-559,343,1780,1278
832,-2894,2,62,73,-140,-359,441,1551,382
941,-2720,285,377,357,0,-502,91,571,-70
193,-2552,400,547,512,30,-663,-178,-200,-802
-800,-2396,239,411,451,244,-152,61,-234,-1541
-996,-2256,31,153,252,356,301,140,-277,-1376
-509,-2127,133,159,215,357,259,53,-436,-840
-478,-2003,90,127,184,354,282,160,-92,-620
-806,-1874,-106,-6,68,235,244,378,477,-601
-660,-1766,-63,10,83,232,320,305,360,-668
-161,-1666,-34,-23,28,164,434,110,-80,-386
98,-1561,-133,-158,-140,-47,396,44,-127,150
92,-1472,-192,-235,-254,-222,167,87,139,457
374,-1383,-89,-187,-275,-412,-253,65,368,842
357,-1293,-122,-178,-256,-424,-323,213,731,1115
-50,-1210,-123,-82,-77,-145,-171,163,378,-58
-302,-1121,-24,64,138,110,-92,-16,-79,-1040
-429,-1044,-18,54,151,184,17,-42,-162,-1133
-221,-980,-92,-89,-35,0,-103,-183,-272,-565
554,-925,-148,-237,-251,-182,-337,-374,-260,368
1138,-882,-69,-282,-383,-116,-78,-424,-258,849
576,-845,-23,-150,-318,89,454,-301,-262,894
-341,-805,-73,-18,-166,352,836,-10,-172,234
-719,-757,149,132,63,611,895,184,-511,-1096
-518,-591,214,202,202,721,811,99,-825,-1487
183,-216,14,41,35,467,715,101,-486,-666
346,-431,-30,-79,-121,144,515,97,-44,-79
37,-591,17,-80,-139,-25,334,15,36,344
22,-550,-331,-342,-364,-278,42,-85,121,1117
-206,-425,-105,-58,-136,-104,23,-69,-307,22
51,-16,28,41,-49,-97,-113,-109,-344,-393
599,1176,51,-58,-156,-322,-355,21,245,-9
697,3867,192,58,-71,-383,-495,146,517,-323
281,5449,262,211,99,-289,-448,206,539,-573
-325,5232,88,123,77,-261,-386,358,779,-282
-126,5184,-49,1,-17,-258,-525,165,607,102
239,5036,18,37,-2,-89,-586,-140,0,-227
318,4088,18,9,-41,-16,-537,-353,-447,-311
237,3005,-126,-86,-82,114,-131,-331,-732,-34
-155,1810,-8,49,97,459,562,-294,-1354,-585
-474,808,15,92,156,530,875,-464,-1729,-911
-582,-299,-83,15,76,333,769,-495,-1439,-639
-677,-1256,-12,59,101,217,659,-314,-932,-594
-579,-1404,75,113,129,94,351,-101,-432,-698
-236,-1199,23,57,95,47,163,206,134,-745
60,-561,-37,-18,55,116,274,294,367,-238
380,70,-30,-22,35,141,363,102,-70,462
356,560,-148,-42,-7,81,307,-143,-626,1054
176,1218,-164,-128,-155,-171,-59,-485,-966,1131
386,1581,-47,-161,-272,-416,-471,-758,-1020,563
366,1456,-220,-258,-353,-481,-501,-153,640,377
82,1008,-348,-338,-393,-481,-413,504,2292,114
-186,334,-121,-84,-118,-291,-314,580,2039,-993
-112,-789,32,94,74,-174,-327,563,1446,-1325
177,-1814,12,45,23,-278,-490,353,1040,-670
415,-2329,53,40,14,-339,-582,170,665,-54
805,-2437,174,132,78,-313,-589,30,460,444
710,-2315,-3,54,-5,-344,-606,-38,457,601
-129,-2180,-282,-130,-132,-222,-401,145,770,508
-1281,-2053,-182,-13,101,295,143,288,462,-690
-1812,-1932,204,385,533,927,943,308,-347,-2441
-1398,-1818,482,608,696,999,994,134,-878,-2726
-594,-1696,386,461,465,542,384,-67,-732,-1737
144,-1604,184,207,160,92,-130,-19,-245,-708
520,-1519,148,104,79,-80,-335,51,-85,-278
409,-1419,-15,-7,71,-26,-238,-76,-338,144
71,-1325,-252,-134,-29,15,65,-331,-665,344
-340,-1256,-202,-49,52,173,309,-375,-848,-41
-624,-1186,-29,144,344,390,353,-248,-739,-535
-552,-1127,42,210,479,392,295,-74,-280,-738
-392,-1068,-31,89,395,335,190,170,391,-590
38,-1003,-12,11,259,355,4,63,203,-465
484,-954,-64,-102,29,276,-80,-159,-163,-289
850,-906,-135,-274,-277,-25,-285,-374,-127,27
1759,-860,-143,-442,-576,-496,-498,-410,295,1101
2289,-812,-118,-447,-621,-685,-292,-185,616,2187
1452,-765,-109,-300,-480,-639,-169,-38,595,2279
188,-710,-108,-200,-345,-603,-241,194,919,1866
-928,-675,-98,-58,-135,-443,-121,516,1100,742
-1319,-625,-38,133,88,-211,-66,541,593,-799
-987,-578,183,282,215,-105,-192,351,13,-1328
-449,-530,560,483,351,-16,-346,92,-471,-1478
-512,-489,505,420,303,-44,-476,-89,-694,-1984
-351,-445,130,57,-3,-214,-306,-71,-401,-1386
64,-420,71,-18,-79,-128,198,158,-105,-735
296,-330,190,88,7,103,432,139,-525,-894
356,369,114,64,-9,258,432,-105,-911,-531
652,661,-32,-18,-146,32,91,-240,-770,524
1138,83,29,23,-132,-228,-356,-503,-860,1122
1196,-289,22,-72,-213,-519,-654,-605,-405,1885
749,-386,-190,-259,-365,-810,-899,-319,792,1835
-301,-377,0,16,13,-356,-509,102,951,-521
-1635,-366,177,338,534,684,805,714,584,-2559
-1746,-339,179,384,588,1057,1430,715,86,-2836
-1055,-298,163,328,391,758,922,426,-72,-1867
-605,-237,200,241,201,521,654,203,-95,-946
-321,-7,277,201,79,378,598,17,-360,-678
-244,495,258,165,44,189,263,4,-339,-645
-224,1586,127,41,-14,72,96,98,-68,-355
68,2934,-41,-140,-166,-95,-62,50,115,215
325,3740,-102,-208,-237,-279,-373,-145,63,643
399,3830,-150,-234,-256,-230,-375,-344,-282,564
337,3612,-94,-191,-193,-130,-265,-504,-538,-56
255,2939,7,-93,-90,-113,-232,-364,-338,-218
535,2210,-110,-177,-163,-183,-103,-223,-103,533
956,1734,-162,-229,-232,-292,-14,-246,-68,1009
838,852,-29,-131,-200,-340,-61,-117,-110,572
394,-354,-132,-242,-319,-449,-304,145,471,677
270,-1188,-324,-432,-448,-475,-346,391,1461,1096
199,-1491,-290,-319,-260,-150,-6,554,1672,853
23,-1506,-125,-42,89,248,338,649,1124,5
428,-1412,62,109,208,296,283,450,465,-564
171,-1279,140,133,177,244,263,289,-17,-880
-919,-1106,-80,-19,35,89,166,238,-67,-857
-1201,-648,-215,-93,10,36,70,147,-113,-585
-647,412,-111,-38,49,67,-28,-127,-534,-162
-326,1564,-115,-65,0,69,-29,-285,-679,-10
-110,2143,-146,-150,-109,128,131,-305,-697,-208
152,2012,-49,-103,-74,118,167,-314,-546,-327
309,1733,49,15,31,7,-21,-251,-121,-153
365,1073,103,56,44,-77,-154,-123,194,-375
454,166,251,182,172,-10,-165,-68,-117,-806
221,-792,341,310,349,160,-38,-66,-466,-697
204,-1365,190,198,224,93,-43,-34,-221,36
299,-1505,-286,-252,-238,-208,-71,145,747,1000
-233,-1487,-460,-446,-395,-227,31,356,1208,709
-963,-1418,-36,-9,60,138,233,343,425,-972
-988,-1326,221,298,333,281,209,151,-375,-1884
-394,-1184,134,218,218,57,-103,-53,-526,-1261
115,-704,-17,-5,-5,-176,-343,-235,-390,-338
165,-500,-143,-147,-109,-185,-203,-182,-16,461
570,-46,-143,-204,-189,-274,-339,-250,99,1088
813,1032,-61,-190,-226,-430,-605,-354,90,1545
55,723,-70,-86,-71,-218,-215,14,352,1107
-292,-21,-23,37,123,142,222,308,468,324
-189,-285,45,109,225,298,214,393,400,-346
-330,-876,0,47,171,270,247,343,170,-1012
-290,-1105,-10,-17,58,122,329,193,-10,-1097
-150,-1075,188,128,132,23,214,122,-214,-1086
124,-1033,266,178,163,-1,23,-38,-680,-779
167,-989,89,21,14,-44,-87,-150,-902,91
51,-935,-1,-66,-90,79,-106,-393,-1266,291
0,-877,73,-24,-57,262,7,-741,-1801,-129
142,-822,76,-42,-86,164,27,-664,-1261,79
242,-766,-35,-156,-233,-159,-123,-120,593,260
207,-713,9,-83,-137,4,292,391,1526,-109
131,-668,210,156,151,400,769,496,1039,-358
-83,-621,176,181,206,369,646,400,598,-547
-232,-559,-35,-11,15,57,251,92,168,-657
351,-513,-188,-223,-243,-304,-232,-305,-50,41
703,-483,23,-95,-165,-328,-424,-568,-437,-26
247,-461,168,97,45,-71,-292,-354,-462,-302
260,-427,-123,-159,-167,-132,-254,41,326,527
531,-404,-329,-390,-356,-234,-187,104,574,1409
457,-394,-87,-142,-95,-27,3,-76,-65,957
291,-371,-63,-93,-69,-80,-161,-331,-495,905
123,-338,-286,-241,-208,-209,-172,-15,113,1170
-248,-328,-140,-28,26,49,213,690,1077,648
-578,-315,124,226,269,317,370,630,894,-272
-672,-287,47,104,131,155,140,172,285,-915
-428,-250,-79,0,42,-61,-105,-44,17,-1070
-151,-239,33,206,263,-12,-51,156,255,-637
-173,-127,28,257,311,10,0,348,491,-13
23,516,67,183,208,-143,-286,12,-201,-346
502,2088,276,187,128,-309,-692,-584,-1162,-425
633,3765,405,234,76,-326,-883,-867,-1609,427
166,4683,150,95,-53,-278,-958,-797,-1514,997
-201,5157,-214,-127,-229,-286,-944,-510,-903,869
-448,5106,-178,-76,-171,-170,-700,-261,-221,-102
-719,4630,36,76,49,9,-421,-50,471,-964
-638,3789,76,128,153,279,157,245,892,-1288
-584,2739,87,210,273,666,938,440,817,-1413
-764,1458,225,418,505,839,1003,384,288,-1499
-755,73,256,375,492,889,1103,125,-536,-1308
-347,-1099,193,237,311,825,1205,72,-607,-603
-63,-1838,155,128,157,606,1051,118,-385,-210
-47,-2067,-36,-82,-31,217,798,247,346,-142
104,-1956,-145,-162,-118,-138,629,515,1282,50
290,-1476,-42,-114,-118,-354,331,468,1252,152
400,-426,-28,-107,-131,-387,91,376,973,175
655,-380,-39,-137,-196,-394,-122,289,830,250
553,-674,-6,-122,-228,-426,-299,126,560,320
212,-1059,0,-104,-207,-404,-299,11,270,297
-161,-1344,10,-21,-65,-200,-147,88,142,95
-366,-1420,-99,14,13,-33,-160,133,165,103
-208,-1421,-185,-52,-32,51,-58,16,76,240
284,-1360,-111,-118,-132,34,-2,-180,-179,256
739,-1291,15,-153,-206,-144,-159,-297,-235,673
1006,-1237,-54,-221,-268,-320,-369,-312,61,1310
1034,-1181,-63,-191,-226,-312,-541,-359,66,1216
599,-1105,-19,-68,-52,-160,-481,-253,-47,466
-159,-1038,155,170,221,6,-372,-125,-186,-408
-966,-976,230,297,372,64,-236,0,-119,-678
-1346,-923,110,187,266,19,-142,21,-111,-759
-704,-858,139,128,137,-76,-256,-21,-80,-431
501,-790,181,45,-33,-300,-458,-155,-101,512
949,-729,-145,-286,-348,-458,-506,-91,103,1378
241,-679,-448,-495,-423,-87,-130,183,107,449
-333,-621,-449,-433,-298,446,588,342,-171,-652
-325,-560,-143,-158,-60,762,1143,192,-621,-773
-249,-439,60,78,78,663,914,-191,-1191,-518
-404,-253,-6,131,63,365,585,-492,-1395,95
-439,-116,-53,70,13,142,415,-594,-1419,252
-383,-178,-84,80,156,151,190,-551,-1336,-206
-230,-373,-108,94,321,168,34,-351,-782,-184
33,-445,-2,116,429,210,23,-159,-193,-42
76,-447,-34,32,279,91,-198,8,483,-42
56,-434,1,5,142,64,-276,272,1250,-180
116,-399,161,120,248,233,-61,222,1050,-423
203,-362,233,210,373,313,145,231,687,-434
474,-301,214,145,239,100,-48,29,365,-119
648,-131,37,-62,-86,-169,-292,-24,612,698
588,357,-30,-119,-251,-356,-427,45,883,1246
678,1427,84,-59,-273,-383,-393,-5,690,1212
367,2589,135,29,-178,-132,-12,137,437,671
-460,3291,31,68,-68,158,431,472,317,-376
-423,4197,-96,-10,-148,59,362,402,107,-710
86,4835,-63,-7,-178,-195,-20,179,114,-141
-110,4767,111,146,-38,-206,-172,151,-75,-378
-119,4536,143,146,6,-174,-169,83,-291,-498
66,4028,37,28,-70,-214,-152,24,-195,-54
343,3491,25,-13,-111,-284,-274,-136,-195,372
681,3110,-30,-103,-219,-447,-537,-308,-236,899
623,2670,-106,-177,-261,-544,-671,-301,81,1382
-161,2092,-81,-102,-141,-283,-425,-341,-267,455
-746,1744,-66,-14,22,69,-33,-176,-425,-420
-741,1926,-16,83,143,190,-51,-52,-363,-455
-636,2381,72,198,259,243,8,-40,-682,-497
-321,3221,77,222,264,297,268,-95,-1054,-375
-199,4177,14,180,243,492,762,71,-989,-293
-296,5098,43,136,180,472,673,9,-865,-377
-354,6103,55,59,47,251,235,-45,-362,-378
-230,7010,-54,-69,-97,104,142,196,513,-277
303,7738,-124,-191,-235,-64,108,390,1264,117
709,7932,-142,-139,-195,-92,79,358,1357,436
226,7565,-117,-54,-76,49,244,315,872,268
-304,6914,-18,65,73,146,273,280,572,0
-389,5947,62,150,183,163,197,196,315,-109
-238,5056,101,116,117,67,27,55,75,-37
-79,4213,45,25,-10,-49,-135,-42,-14,261
112,3386,17,-19,-94,-163,-278,-98,-18,493
508,2718,-75,-138,-212,-344,-459,-178,93,883
745,2182,-165,-268,-326,-431,-554,-142,213,1134
864,1987,-114,-213,-266,-276,-292,-92,4,782
492,1879,-91,-120,-120,-60,59,-12,-97,748
-37,1702,-5,46,96,62,81,71,-145,644
15,1681,103,138,157,-21,-129,-120,-435,126
588,1907,18,-60,-90,-399,-544,-354,-335,451
800,2256,-136,-179,-231,-596,-694,-330,44,1355
229,2523,69,159,92,-262,-467,-381,-795,757
-174,2577,129,246,220,-43,-423,-621,-1716,210
94,2377,5,42,21,-148,-660,-818,-1642,712
253,1928,-269,-295,-326,-310,-641,-464,-351,1238
-81,1168,-214,-232,-252,-67,-26,330,1093,816
-87,598,70,47,59,339,530,480,778,-403
-196,170,-12,16,63,428,649,485,447,-725
-775,-251,-202,-118,-36,318,478,516,428,-941
-726,-209,-127,50,127,298,295,395,244,-1230
-542,-18,59,220,265,220,165,282,-24,-1120
-493,326,132,195,230,86,-18,119,38,-669
-561,580,-11,36,77,63,30,162,412,-277
-574,1655,-142,-151,-82,38,155,246,531,328
-747,3648,-322,-319,-244,-140,-17,-25,141,476
-742,6475,-322,-241,-172,-209,-175,-184,-241,103
-657,7004,-190,-9,73,-29,11,-125,-444,54
-384,7669,66,229,330,163,135,-138,-592,-75
316,8336,294,368,453,193,31,-245,-698,269
903,7968,251,327,368,100,-125,-399,-813,188
1241,7714,269,278,211,38,-295,-619,-1105,-237
966,6767,249,172,81,97,-235,-637,-1209,-69
719,5709,80,-14,-116,72,-24,-293,-269,830
877,4541,185,-57,-265,-17,20,-56,370,1097
890,3272,285,-6,-198,-26,67,-205,-145,337
19,1726,-83,-215,-283,-186,136,26,361,386
-936,63,-209,-205,-175,-150,210,694,1293,-373
-739,-748,49,54,66,-33,78,896,1296,-942
-357,-1154,28,81,78,-148,-208,541,1031,-269
-378,-1391,-37,-9,17,-198,-282,303,752,-223
-623,-1511,14,68,130,-62,-241,352,423,-615
-767,-1616,36,163,248,75,-282,261,70,-793
-626,-1512,69,124,205,132,-233,56,-173,-766
-351,-1311,57,40,79,141,109,73,-174,-623
-81,-1153,-41,-67,-67,62,292,121,-104,-259
-50,-1493,-141,-178,-187,49,343,69,-105,43
100,-2268,-132,-214,-225,106,275,26,-107,479
410,-3178,-39,-142,-188,184,271,-55,-204,909
171,-4514,51,-44,-121,203,368,-110,-332,717
-267,-6008,-1,-45,-95,136,399,-155,-489,280
143,-8889,20,25,67,123,300,-261,-753,118
1029,-9763,-38,-56,-87,-115,-85,-255,-403,681
1431,-10359,-197,-200,-297,-424,-432,-217,64,1258
1253,-10188,-170,-313,-449,-621,-666,-301,369,1290
888,-9633,-94,-266,-323,-460,-527,69,1414,1898
-412,-9052,-130,-108,-27,-70,61,542,1135,490
-1371,-8497,-198,13,149,139,411,535,516,-965
-1341,-7879,-85,188,338,311,364,225,-93,-1263
-994,-6892,142,400,530,405,155,-68,-599,-1450
-956,-5601,260,467,581,453,86,-110,-778,-1520
-892,-4680,155,328,446,440,69,-34,-591,-1202
-514,-4296,49,174,261,295,-167,-103,-349,-574
-159,-4119,163,141,157,167,-270,-215,-322,-96
-39,-4421,211,145,118,104,-157,-181,-319,-12
6,-4945,164,96,47,-34,-189,-145,-281,29
197,-5099,175,56,-26,-199,-275,-161,-245,232
456,-4790,155,0,-119,-267,-520,-173,-185,508
638,-4583,-10,-163,-260,-186,-548,-213,-263,686
659,-4548,-238,-392,-408,83,250,-179,-436,661
787,-4305,-249,-436,-423,256,872,-51,-373,540
930,-4046,-151,-356,-375,100,625,125,139,591
584,-3797,-97,-192,-257,-112,289,278,584,638
29,-3571,-110,-69,-153,-243,166,280,663,665
-393,-3366,-48,-23,-79,-242,114,52,268,413
-495,-3169,41,18,13,-117,92,-130,-206,151
-403,-2980,7,6,39,-104,21,-140,-383,154
-101,-2796,55,22,14,-221,-141,-193,-454,267
-38,-2626,114,44,3,-274,-307,-259,-397,200
-189,-2468,-42,-94,-77,-219,-354,-78,123,152
295,-2337,-133,-197,-168,-178,-382,43,588,437
1122,-2211,-105,-243,-251,-275,-374,39,731,1201
1326,-2086,-166,-353,-400,-539,-558,28,935,1967
632,-1984,-46,-199,-232,-416,-597,87,932,1500
-308,-1872,155,125,192,152,33,208,505,77
-866,-1756,235,268,390,519,555,170,-281,-1248
-1070,-1648,215,264,368,495,574,66,-866,-1744
-841,-1556,180,194,263,335,456,-83,-1020,-1487
-346,-1449,1,-46,-16,197,408,-348,-1162,-937
3,-1350,-163,-200,-218,120,449,-424,-1077,-459
74,-1266,-149,-78,-139,127,511,-188,-542,-63
310,-1181,21,63,-26,-5,241,-139,-320,260
348,-1087,174,162,102,-12,124,29,11,645
-435,-1005,310,364,361,249,276,426,698,686
-620,-931,278,348,357,253,135,254,467,565
316,-854,141,132,100,-87,-340,-338,-272,512
910,-775,-35,54,9,-209,-563,-626,-604,378
838,-743,-114,15,-44,-138,-446,-429,-200,627
222,-721,0,71,61,113,-30,-7,229,374
-495,-682,-157,58,132,290,345,398,598,16
-612,-586,-93,71,170,298,542,391,287,-492
-438,-332,-51,14,62,121,478,407,446,-535
-268,380,0,5,-10,42,268,489,713,-414
14,1711,105,91,36,44,124,344,473,-242
216,3255,27,24,-40,-113,-29,150,229,-80
376,4947,-141,-87,-172,-303,-182,9,269,60
270,6690,-216,-184,-249,-372,-239,1,642,365
203,8518,-227,-181,-224,-279,-262,79,933,647
337,11341,-161,-89,-156,-177,-350,-121,280,800
253,13283,-29,-31,-74,-44,-264,-263,-353,788
159,13755,-100,-80,-59,92,0,-163,-500,638
254,13474,-118,-105,-63,145,227,-190,-820,454
563,13076,-68,-116,-106,-26,16,-522,-1263,752
361,11975,-108,-141,-151,-192,-161,-525,-926,1353
-129,10008,-71,-1,17,-28,26,-93,-373,973
-141,8140,133,215,246,131,74,142,-187,-45
-101,6415,164,179,178,-83,-202,354,784,-233
-70,4616,253,213,158,-187,-326,435,1318,-826
-187,3007,307,293,242,-21,-154,366,836,-1153
-485,1794,111,143,149,5,-124,335,427,-866
-150,1103,-96,-78,-59,-70,-120,148,113,-336
363,800,-58,-116,-113,-78,-92,-13,46,-227
431,717,16,-66,-107,-141,-239,33,483,-100
477,829,-195,-182,-243,-321,-348,106,964,945
638,1160,-176,-196,-260,-402,-328,-29,729,1134
105,1487,-99,-87,-96,-221,-198,-11,360,-113
-804,1637,-73,83,178,68,41,-33,-202,-1169
-1041,1758,-106,176,298,178,119,-65,-377,-1074
-578,1751,-113,137,217,128,-187,-119,-292,-505
48,1470,33,43,105,89,-444,-273,-299,75
-51,750,123,3,27,71,-501,-313,-298,5
-691,-218,93,28,18,176,-120,-236,-366,-421
-947,-1010,114,152,113,287,351,-194,-627,-634
-328,-1534,302,268,191,302,420,-152,-812,-669
252,-2058,338,249,178,287,245,-164,-855,-424
252,-2601,247,183,136,221,82,-228,-791,-197
26,-2800,94,38,-9,0,-66,-201,-322,5
-98,-2675,-72,-156,-214,-136,24,-39,16,25
71,-2419,-186,-300,-334,-76,66,52,133,139
213,-2030,-181,-264,-211,307,691,472,467,397
-60,-1721,-58,-111,-8,355,937,772,910,372
-454,-1201,-55,-54,82,197,679,705,1015,504
-418,-718,-37,-75,49,12,241,322,586,419
367,-594,-166,-250,-164,-265,-188,-25,372,769
1074,-845,-429,-473,-412,-537,-454,-245,410,1662
1505,-1643,-334,-399,-459,-701,-667,-394,472,2316
1269,-3009,99,-63,-247,-619,-665,-363,285,1808
459,-4480,200,128,8,-300,-315,-181,-30,608
-487,-6011,16,70,107,6,-9,214,255,-94
-1058,-6934,110,193,262,254,104,514,425,-1044
-990,-6897,332,380,432,447,205,456,37,-1551
-605,-6531,408,376,410,395,268,239,-325,-1395
-257,-6136,368,294,330,232,227,72,-384,-949
-329,-5775,254,237,270,209,132,-40,-387,-761
-485,-5424,139,162,201,209,35,-115,-452,-779
-330,-5089,22,53,77,191,130,-122,-424,-495
-134,-4776,-55,0,-4,100,-13,-158,-328,-126
-28,-4390,-94,7,-5,15,-156,-245,-336,97
4,-3488,-105,-14,13,126,102,-373,-605,126
90,-2377,-117,-46,24,264,422,-451,-1048,225
271,-1463,-225,-128,-66,128,268,-421,-1104,618
401,-934,-195,-223,-193,-79,45,-440,-942,904
217,-1115,-186,-285,-266,-168,-48,-374,-482,721
-77,-1681,-174,-238,-227,-161,-5,121,562,143
209,-2048,-51,-93,-113,-121,52,548,1406,179
735,-2071,-117,-111,-133,-296,-179,318,1295,1075
1109,-1895,-301,-212,-220,-483,-443,65,989,1523
934,-1683,-287,-174,-175,-488,-518,-5,646,1242
448,-1290,-158,-125,-119,-466,-556,27,650,1009
104,-479,118,31,0,-280,-561,-59,196,-8
-165,442,145,100,78,-2,-372,-143,-284,-440
-740,1333,-11,105,143,339,212,75,-315,-602
-949,2422,71,163,206,474,469,263,-334,-989
-943,3526,163,180,183,360,275,177,-338,-1129
-924,4642,135,129,132,291,282,80,-303,-1016
-475,5735,70,116,132,292,377,26,-389,-644
-47,6405,41,66,59,153,330,-77,-513,-161
317,6463,63,-15,-82,-108,83,-160,-496,504
699,6159,50,-76,-185,-318,-370,-246,-388,1001
689,5304,65,-79,-190,-312,-397,-296,-455,920
575,4064,-38,-189,-301,-367,-425,-154,27,1066
344,2845,-159,-281,-362,-377,-528,91,738,1207
-7,1764,-109,-148,-166,-80,-255,98,547,857
-519,827,9,40,65,335,114,70,-64,-188
-665,141,149,202,230,625,312,28,-571,-968
-535,-163,167,213,249,688,618,-68,-894,-1110
-364,-268,36,59,79,497,923,-43,-700,-662
48,-174,30,16,5,232,718,-36,-455,-57
528,136,-2,-46,-61,-3,308,-186,-533,335
762,473,-65,-144,-195,-259,-53,-305,-445,639
609,804,-44,-118,-183,-302,-152,-271,-256,591
360,1308,-179,-213,-253,-361,-287,-274,-89,720
260,1807,-344,-373,-414,-433,-390,-236,324,1539
0,1884,-194,-272,-306,-255,-179,4,609,1331
31,1638,-125,-203,-215,-147,-42,237,727,505
139,1065,-3,-14,17,93,172,219,351,267
-56,262,241,229,247,290,334,255,291,185
-150,-351,307,246,200,164,193,492,869,-97
-71,-692,270,194,138,59,76,625,1116,-537
135,-888,228,155,95,-11,-19,439,1019,-462
46,-1122,-30,-38,-56,-198,-210,268,982,316
-58,-1023,-34,-67,-102,-319,-383,49,576,344
-447,-699,118,91,59,-208,-384,-50,60,-343
-817,-338,164,217,238,-29,-296,20,-178,-765
-727,368,97,181,258,44,-220,35,-217,-710
-224,1420,-22,50,114,-15,-137,-97,-418,-380
202,2382,-30,-23,-11,-95,-91,-136,-602,-156
612,3350,8,-70,-110,-162,-154,-91,-365,205
410,4085,-146,-226,-257,-265,-285,-42,261,818
-275,4415,-146,-153,-142,-92,-202,-121,239,293
-577,4473,-2,42,97,234,76,-102,102,-222
-630,4393,102,160,254,579,519,-78,-250,-608
-536,4152,221,266,346,652,613,20,-482,-727
-257,3591,201,210,245,391,414,13,-487,-336
-95,2858,90,76,78,164,334,-9,-440,68
-95,2200,-38,-48,-53,-4,175,-17,-343,229
143,1725,-162,-197,-192,-159,8,55,56,289
504,1347,-184,-247,-239,-194,-80,37,298,602
725,1231,-159,-215,-211,-214,-185,-40,433,928
1014,1463,-129,-190,-197,-263,-206,-120,326,1055
920,1652,-71,-126,-121,-203,-118,-49,140,984
386,1928,1,-37,-45,-208,-254,18,256,1029
-171,2214,-29,-71,-62,-295,-476,-17,304,680
-136,2521,45,36,101,-183,-486,-13,142,97
210,2973,278,262,333,-64,-520,-42,108,-161
246,3364,246,207,263,-137,-480,-97,275,-303
197,3470,-43,-27,68,-286,-268,-130,352,77
-565,2969,-157,-34,141,-174,35,86,428,-399
-930,2167,-39,112,276,75,152,218,149,-952
-604,1094,47,165,215,53,-169,70,-163,-753
-135,-218,41,104,61,-27,-437,-149,-313,-398
124,-1463,-63,-32,-140,-99,-405,-250,-367,-82
10,-2794,-30,-109,-215,21,7,-72,-292,76
-143,-4100,-32,-138,-161,287,466,304,54,78
-180,-5186,-81,-160,-123,445,703,348,110,-62
-211,-5961,-105,-148,-63,466,693,124,-135,-165
-508,-6574,-5,13,107,516,899,61,-527,-660
-573,-6778,183,184,238,540,909,71,-700,-819
-459,-6584,132,129,165,410,596,16,-516,-534
-396,-6190,17,44,82,277,392,-57,-474,-292
-121,-5483,-3,29,33,140,158,-75,-331,-7
187,-4674,57,14,2,29,87,-6,-81,248
251,-4090,47,-10,-24,4,141,-65,-228,267
69,-3917,-30,-53,-57,-42,87,-81,-203,208
-39,-3834,-58,-43,-4,-11,12,-104,-218,128
184,-3955,-89,-92,-65,-118,-224,-55,133,302
537,-4480,-22,-108,-118,-257,-402,107,857,557
755,-5010,40,-61,-87,-302,-480,47,803,712
667,-5208,-11,-9,-42,-301,-472,-12,498,755
399,-5107,-34,79,39,-207,-330,-1,200,475
132,-4871,-42,63,57,-121,-333,-58,105,457
79,-4579,-108,-102,-79,-135,-311,-119,198,672
335,-4187,-87,-157,-160,-159,-139,-123,218,376
211,-3795,-75,-140,-174,-252,-96,11,367,237
-154,-3200,-99,-76,-75,-160,55,286,565,416
-283,-2164,-23,68,83,9,36,174,125,-53
-356,-1014,107,226,249,211,28,-71,-465,-556
-455,47,112,262,290,399,242,-117,-679,-524
-199,1001,33,134,148,393,391,-147,-672,-304
397,1740,9,8,-32,155,280,-185,-476,18
679,1927,-154,-103,-162,-25,205,-220,-282,269
217,1706,-347,-242,-298,-172,41,-343,-210,443
74,1340,-284,-223,-303,-224,-126,-511,-417,527
150,551,-20,-45,-113,-71,-76,-491,-665,580
-386,-465,112,151,154,168,131,-52,-345,514
-596,-1153,173,246,246,179,147,334,142,469
-337,-1577,157,167,145,-43,-70,400,352,101
-331,-2084,-39,59,55,-152,-172,479,511,-394
-80,-2162,5,118,113,-134,-259,375,334,-543
-86,-2113,134,174,163,-105,-382,223,193,-602
-145,-1914,-7,65,72,-114,-408,181,392,-338
166,-1300,9,29,19,-112,-338,-32,124,186
510,-629,31,19,0,-171,-354,-244,-215,618
351,-105,125,93,84,-159,-343,-353,-673,84
194,521,145,88,67,-173,-155,-320,-705,-174
275,1064,-97,-141,-172,-339,-335,-182,381,622
319,1213,-368,-345,-318,-262,-298,-57,1053,974
183,1042,-201,-81,-33,153,105,-146,237,-48
-84,603,-23,108,180,394,334,-226,-550,-480
-211,-175,-29,13,97,377,471,-168,-626,-69
-391,-1135,83,67,132,381,662,20,-688,-244
-770,-2040,209,223,257,345,569,138,-724,-902
-813,-2514,194,200,199,213,277,261,-219,-904
-527,-2662,14,50,53,239,402,353,284,-452
30,-2451,-78,-18,-1,376,853,286,285,-42
680,-1786,56,-26,-52,226,701,147,178,426
880,-980,109,-66,-161,-93,189,-28,277,586
317,-190,-45,-164,-268,-257,-72,40,774,632
186,892,-175,-283,-375,-348,-190,112,912,896
541,2087,-132,-315,-429,-424,-327,4,486,760
233,3047,-24,-168,-257,-274,-256,175,351,341
0,3967,-81,-119,-160,-198,-229,394,616,562
-96,4726,-68,-33,-24,-84,-128,452,544,22
-215,4974,9,79,98,11,106,465,333,-455
-222,4836,13,56,61,-69,139,313,182,-4
-45,4395,-117,-104,-90,-229,-58,98,208,759
-377,3488,-92,0,47,-58,-37,-18,-132,38
-748,2569,83,265,336,255,98,-161,-669,-1071
-437,2002,300,356,384,293,48,-426,-1074,-1096
360,1648,152,113,128,71,-90,-477,-1052,-127
800,1247,-75,-144,-129,-62,-160,-495,-1123,712
871,1017,-44,-188,-182,-36,-215,-684,-1281,1059
626,940,-154,-275,-253,-106,-271,-614,-566,1482
417,1113,-219,-280,-294,-239,-287,-109,720,1458
175,1621,171,119,-32,-208,-282,208,1109,262
-533,2104,343,385,241,-30,-64,484,1044,-727
-1075,2701,122,246,243,98,205,665,825,-1255
-1059,3612,62,168,280,212,215,558,442,-1372
-884,4546,75,181,310,338,228,336,8,-1140
-683,5159,8,129,216,276,177,102,-256,-717
-371,5361,-61,31,45,38,-28,-70,-271,-231
30,5283,-107,-79,-114,-148,-219,-132,-188,128
284,4722,-175,-180,-212,-16,13,-80,-150,213
529,3790,-95,-109,-141,206,215,41,17,355
607,2782,99,61,22,229,116,90,142,601
441,1845,209,163,92,57,-132,14,49,710
389,1077,51,74,-28,-201,-289,20,194,718
522,542,-47,-56,-159,-350,-422,26,571,698
890,387,42,-129,-266,-495,-676,-184,523,882
722,162,-98,-223,-342,-541,-788,-204,424,887
-74,-172,-395,-400,-392,-317,-385,-68,414,363
-624,-181,-403,-349,-241,166,527,196,342,-143
-732,41,-14,58,143,460,983,348,-75,-675
-863,332,294,360,398,417,715,257,-345,-1198
-747,763,263,341,390,294,463,266,-175,-959
-495,1046,135,255,329,197,250,167,-150,-663
-374,634,42,179,275,115,64,-42,-348,-586
-242,46,13,129,223,46,-106,-200,-481,-600
-181,-479,1,81,167,-47,-265,-249,-425,-376
-46,-1211,-23,-20,86,-67,-227,-233,-311,-82
446,-2083,-24,-95,-40,-32,-109,-191,-224,163
770,-2875,72,-51,-85,-29,-140,-140,-147,369
681,-3564,138,32,-67,-23,-152,-181,-155,575
331,-4180,60,-41,-160,72,65,-210,-269,689
321,-4475,-31,-155,-222,123,223,-265,-419,641
629,-4340,-1,-142,-193,55,193,-382,-655,366
630,-4197,-113,-226,-268,-204,18,-320,-344,547
476,-3953,-231,-322,-334,-417,-23,150,609,913
-59,-3582,-14,-77,-73,-234,50,353,780,680
-271,-2990,251,192,167,-8,30,63,160,237
-101,-2085,237,200,172,-28,-158,-63,-117,7
-226,-1190,126,123,125,-84,-376,-86,-134,-88
-54,-426,52,34,53,-165,-574,-122,-24,16
-214,-228,40,42,68,-86,-498,96,251,-256
-577,-378,58,122,172,110,-237,217,99,-587
-520,-524,27,65,104,176,-106,26,-297,-522
-384,-960,32,35,49,278,170,-142,-551,-527
-96,-1523,47,34,58,355,568,-114,-473,-546
218,-1990,71,55,63,286,590,-21,-273,-391
118,-2449,59,88,101,184,300,60,-39,-345
-132,-2903,-67,1,63,179,192,224,414,-208
-122,-2910,-218,-200,-96,167,304,317,822,193
247,-2368,-259,-295,-207,27,181,157,692,673
327,-1755,-152,-211,-140,-1,83,70,443,491
-40,-1172,-79,-85,0,78,148,126,342,46
-272,-526,-149,-37,29,4,-13,138,242,-88
-130,296,-86,17,66,-81,-191,94,88,-18
37,1205,-50,72,100,-128,-327,-37,-73,-47
119,1971,-149,21,37,-140,-320,-78,-49,40
403,2415,-228,-122,-122,-100,-130,-164,-85,410
869,2499,-93,-146,-202,-174,-87,-364,-356,881
929,2200,119,-60,-186,-304,-50,-472,-609,1044
552,1264,225,45,-80,-296,-95,-486,-678,929
-54,-7,-50,-88,-124,-338,-223,-353,-258,968
-481,-998,-201,-145,-150,-355,-188,-51,78,249
-558,-1677,-70,-39,-4,-132,-13,312,312,-410
-472,-2235,59,59,119,130,94,278,152,-291
-478,-2570,130,117,171,368,368,155,-293,-554
-634,-2492,30,53,126,424,621,259,-291,-533
-442,-1840,-19,6,49,192,350,320,107,-59
-195,-824,58,57,63,59,102,223,203,-60
-255,299,97,117,122,206,240,123,-54,-449
-425,1355,86,135,161,446,562,74,-295,-834
-293,2503,99,157,195,456,626,62,-359,-734
0,3667,73,114,130,254,292,91,-152,-240
304,4570,-115,-78,-78,18,15,154,197,437
577,4916,-318,-296,-300,-231,-229,236,772,1242
1026,4936,-130,-238,-348,-440,-517,-94,502,1610
1167,4556,62,-134,-298,-461,-521,-399,-69,1576
821,3743,83,-92,-223,-407,-458,-287,97,1013
241,2868,182,70,-37,-300,-514,-200,177,-24
-558,1993,109,125,100,-136,-404,67,483,-607
-1019,1390,-1,100,148,0,-198,290,783,-1093
-776,1159,23,171,206,89,-31,189,288,-1186
-579,1253,61,283,320,176,162,167,-186,-1295
-388,1638,38,170,214,82,-28,73,-289,-906
-117,2191,-27,-11,20,-39,-251,-141,-368,-346
192,2922,-162,-169,-135,-127,-288,-225,-268,221
427,3627,-218,-251,-192,-103,-93,-106,-33,692
484,4290,-178,-212,-140,-13,20,-131,-161,772
344,5077,-168,-193,-129,35,4,-238,-443,720
44,5723,-97,-97,-29,269,404,-79,-404,676
1,6110,-11,0,10,308,636,-71,-416,654
179,6109,54,39,-61,93,347,-281,-696,553
-36,5523,49,39,-64,41,120,-59,-103,310
-282,4633,111,133,87,177,227,491,911,119
127,4010,135,98,61,39,81,460,868,-261
638,3501,228,102,26,-164,-211,156,354,-587
552,2747,231,92,17,-246,-337,49,203,-259
462,2185,7,-55,-96,-367,-397,183,640,840
192,1832,-132,-99,-110,-400,-401,341,762,917
16,1816,-1,37,22,-341,-456,263,376,303
243,2098,138,149,111,-310,-586,-67,-220,106
48,2298,4,42,12,-256,-448,-224,-327,197
-868,2374,5,115,156,126,51,-38,-300,-689
-1252,2647,162,267,310,375,237,39,-336,-1385
-1076,3108,201,310,319,479,200,37,-223,-1186
-795,3655,153,253,249,485,90,45,-75,-951
-799,3968,120,217,229,519,174,78,-155,-1071
-677,3917,1,153,173,545,343,42,-339,-838
-431,3483,-147,43,75,512,540,-4,-363,-474
-48,2825,-40,5,6,398,592,-6,-292,-125
244,1750,48,-6,-38,219,462,-8,-268,287
166,474,16,-49,-107,-35,148,-80,-308,480
12,-694,-40,-116,-173,-218,-69,-180,-317,479
96,-1704,-68,-143,-155,-216,-63,-200,-205,393
304,-2572,-157,-208,-220,-235,-140,-299,-321,134
534,-3206,-201,-264,-297,-292,-188,-323,-371,125
647,-3508,-148,-254,-308,-344,-311,-337,-395,277
488,-3722,-153,-238,-282,-296,-342,-260,-173,495
202,-3805,-165,-208,-226,-157,-136,191,692,776
-21,-3582,-34,-74,-63,8,102,446,1069,533
310,-3011,56,44,51,-32,67,298,833,472
463,-2264,4,51,74,-142,-108,205,734,554
105,-1524,-77,-13,59,-120,-83,123,486,393
-109,-879,-113,-63,44,-61,42,253,524,421
91,-446,-111,-109,-37,-174,-129,249,619,674
210,-236,-101,-129,-131,-251,-331,140,516,647
228,-256,68,20,-64,-150,-311,0,223,571
234,-606,315,217,99,68,-42,-145,-269,190
86,-1074,192,160,34,78,-56,-179,-384,-167
-285,-1477,10,81,30,-2,-138,-114,-277,-396
-407,-1707,30,64,72,-22,-40,-179,-479,-542
-283,-1718,91,112,156,-35,-33,-301,-642,-503
-82,-1466,180,175,187,-123,-230,-498,-951,-303
-199,-1126,113,103,129,-98,-211,-536,-1148,-242
-615,-803,74,111,188,124,-301,-474,-1241,-755
-690,-191,62,107,217,392,-226,-467,-1302,-1214
-522,607,0,37,144,664,388,-108,-574,-1106
-174,1495,5,11,87,698,1169,481,480,-570
50,2438,54,41,67,463,1210,589,618,-159
103,3222,75,46,14,164,589,410,411,-11
242,3654,87,30,-15,25,225,248,422,147
289,3576,21,-19,-62,-59,121,94,388,382
364,3193,-108,-120,-149,-195,61,-13,307,634
696,2555,-129,-162,-192,-355,-199,-89,394,894
954,1636,-66,-165,-232,-479,-465,-166,384,909
1204,-164,-108,-329,-405,-637,-655,126,1035,1719
882,-1125,-270,-424,-436,-552,-435,68,924,1631
-215,-2201,-250,-238,-167,-203,-35,179,473,201
-1152,-2868,20,149,288,241,345,388,-38,-1206
-1107,-3028,184,363,454,375,386,384,-390,-1431
-579,-2895,205,350,322,170,71,133,-517,-798
-312,-2612,133,200,123,21,-132,-87,-504,-238
-176,-2302,29,74,26,2,-259,-216,-516,-17
-117,-1794,-31,82,49,77,-330,-271,-410,-54
-113,-1095,49,111,99,322,45,-274,-411,-203
-31,-463,73,68,93,454,414,-313,-792,-16
91,-184,31,47,51,272,204,-393,-979,405
130,-220,67,55,5,40,-47,-423,-906,464
103,-481,33,2,-57,-89,-22,-246,-509,292
-12,-1195,-134,-146,-168,-99,156,67,388,58
277,-1831,-118,-177,-179,-72,236,351,1487,114
441,-2224,27,-45,-55,-20,234,342,1180,-137
284,-2566,153,88,67,52,224,276,415,-597
67,-2847,109,63,46,11,124,331,426,-331
-101,-2601,-117,-45,-58,-225,-235,71,452,264
-209,-2184,-67,38,35,-116,-177,89,174,-254
-115,-1603,-86,-13,3,-86,-181,113,161,-135
251,-796,-64,-65,-63,-141,-288,57,249,338
263,-42,-54,-86,-106,-147,-282,-1,263,639
356,1714,-173,-201,-188,-256,-418,-178,-13,640
627,2354,-57,-83,-98,-325,-476,-206,-183,604
681,2412,57,-17,-77,-391,-512,-187,-200,561
466,2064,36,-38,-88,-350,-432,-155,-44,639
41,1307,-1,18,45,-73,-25,-29,49,512
-294,335,39,184,268,307,407,-141,-524,185
-702,-553,50,275,412,518,674,-280,-1082,-82
-806,-1204,139,264,381,458,638,-365,-1411,-508
-604,-1732,28,90,155,195,343,-203,-994,-499
-497,-2157,-162,-100,-23,-24,89,105,36,-502
-249,-2221,-125,-88,-36,-54,-89,228,703,-553
-40,-1986,-16,-22,-15,-46,-208,206,943,-370
-58,-1649,63,30,17,-37,-278,43,665,-342
-134,-1176,59,28,56,98,-66,101,562,-552
-120,-481,22,2,87,291,354,130,443,-450
-88,345,4,-25,71,239,409,14,95,-174
-10,1295,-36,-50,50,41,196,-7,10,38
-21,2117,-66,-46,34,-51,57,10,-8,123
9,2568,-101,-66,-21,-71,16,22,-68,236
188,2654,-146,-129,-119,-26,92,-7,-290,267
461,2541,-196,-212,-225,-50,97,-22,-317,375
519,2035,-210,-230,-273,-105,-29,75,-4,759
419,1264,-208,-245,-320,-202,-197,68,187,1070
536,508,-218,-269,-403,-388,-423,15,586,1327
573,-295,-80,-128,-268,-272,-317,141,1035,1245
253,-1067,125,65,-11,-2,-31,188,889,736
23,-1578,260,195,135,57,-33,36,222,-426
-276,-1797,340,291,234,106,27,8,-216,-1069
-682,-1899,210,225,236,106,190,103,-163,-776
-569,-1664,158,184,195,9,34,54,-69,-464
-132,-1188,188,195,152,-112,-340,-207,-236,-350
-21,-901,111,116,96,-142,-490,-380,-378,-275
-151,-650,140,161,175,15,-320,-409,-685,-349
-117,-321,178,207,216,144,-52,-358,-910,-284
6,-162,39,58,78,127,23,-328,-797,-13
-49,-496,-103,-90,-63,89,9,-259,-559,200
-73,-1096,-103,-101,-58,106,163,-74,-295,126
141,-1747,-70,-103,-66,-13,108,3,100,177
522,-2653,25,-59,-63,-212,-46,76,476,458
642,-3571,96,-19,-68,-392,-266,-14,399,551
472,-4502,-6,-34,-65,-470,-398,15,463,585
-1,-5842,13,80,137,-276,-253,454,973,582
-607,-6847,22,117,278,8,-56,615,1033,437
-737,-6908,-147,-81,115,137,32,365,597,-29
-300,-6403,-306,-289,-80,186,226,203,346,-172
120,-5748,-352,-392,-222,264,528,257,385,294
496,-4699,-212,-294,-291,165,308,148,279,442
614,-3561,-60,-39,-215,56,22,-66,-9,220
371,-2707,63,93,-125,75,113,-80,-213,105
649,-1682,141,25,-192,-115,-98,-132,-46,711
512,-770,95,-54,-200,-286,-287,-167,73,785
-46,-255,-11,25,-42,-150,-91,-63,-94,122
-497,-300,50,189,169,40,1,-46,-352,-597
-920,-561,90,278,315,265,272,67,-437,-1244
-878,-812,187,290,338,325,319,57,-477,-1329
-485,-1246,244,241,268,301,324,-29,-576,-789
-218,-1638,131,110,143,367,601,-44,-738,-246
-87,-1921,60,15,61,317,549,-87,-843,-278
-18,-2219,50,-24,-11,158,364,-65,-651,-415
155,-2288,73,-25,-44,93,275,-55,-267,-107
210,-2136,-15,-121,-132,-6,116,-72,172,465
138,-1743,-59,-143,-164,-89,-12,-130,163,574
81,-1131,36,-16,-46,-39,23,-167,-226,39
43,-412,33,21,-6,-66,-52,-101,-131,-141
-170,183,17,15,7,-43,-86,98,333,-147
38,1871,-128,-157,-145,-144,-233,-43,198,198
-176,2448,-151,-169,-121,-84,-132,52,468,70
-67,2671,-112,-124,-62,-71,-196,32,612,53
174,2488,-78,-72,-12,-68,-179,19,398,100
136,2005,-110,-87,-14,-54,-11,43,222,189
264,1259,-121,-139,-86,-125,-115,16,256,285
497,327,-30,-98,-72,-149,-355,-83,258,391
388,-625,57,-5,13,-48,-267,-67,182,141
399,-1386,-22,-109,-127,-245,-347,-46,355,534
223,-2133,9,-81,-127,-245,-228,58,370,657
-300,-2820,136,116,112,95,99,125,-68,-195
-602,-3045,88,138,168,243,186,154,-112,-405
-443,-2746,25,60,86,157,153,109,-30,-114
-232,-2017,56,49,72,54,97,-40,-203,-159
-114,-1207,126,108,136,11,105,-132,-347,-278
-149,-496,75,166,182,-41,47,-35,-288,-296
-218,321,27,185,199,19,-160,-75,-434,-362
-111,1248,67,120,121,97,-295,-316,-790,-55
-178,1912,0,16,20,171,-139,-421,-903,395
-92,2192,-58,-53,-50,207,6,-453,-830,518
181,2239,-172,-168,-194,31,2,-341,-349,494
342,1957,-299,-276,-317,-102,323,72,371,411
406,1314,-186,-230,-291,-148,459,387,847,495
372,600,-42,-106,-163,-190,208,502,970,522
115,-31,136,105,80,-35,84,450,668,153
-232,-472,252,243,239,133,80,300,251,-262
61,-556,160,156,170,88,-25,148,72,-129
539,-442,-18,8,13,-22,-222,-70,-44,339
511,-409,-15,-48,-47,15,-221,-252,-340,227
400,-150,37,-36,-21,118,-25,-287,-638,-53
57,334,64,13,25,81,26,-164,-574,-215
-473,752,2,1,-2,-59,-44,75,2,-245
-586,1257,-122,-77,-59,-100,123,201,509,-122
-308,2060,-73,-56,-78,-134,134,180,578,-204
-42,2822,-44,-61,-111,-249,-203,133,673,-12
206,3214,-82,-113,-139,-285,-387,42,594,582
424,3162,31,-41,-71,-140,-248,-48,215,594
101,2693,104,44,33,82,27,-45,-13,73
-450,1793,71,110,141,237,138,-55,-138,-551
-678,727,-48,167,218,340,306,41,-228,-549
-492,-58,36,191,252,278,400,50,-494,-379
-332,-714,124,154,201,144,343,-201,-1031,-274
-305,-1292,83,94,147,131,226,-469,-1498,-265
-152,-1682,45,91,129,140,79,-566,-1513,-242
97,-1756,-9,-17,-13,-30,-85,-384,-852,-68
396,-1573,-148,-253,-286,-308,-175,14,393,436
558,-1253,-252,-413,-461,-422,-187,265,1262,937
399,-813,-164,-297,-337,-320,-207,310,1500,932
308,-223,-106,-184,-191,-247,-238,429,1636,831
655,864,-181,-217,-208,-404,-489,174,1191,936
949,2114,-211,-193,-178,-569,-708,-70,739,1094
626,2938,-29,79,54,-455,-650,-93,319,463
205,3313,3,167,122,-352,-560,-78,79,-5
-1119,2948,1,226,373,388,318,636,24,-1300
-1315,2455,173,254,381,729,696,538,-312,-1727
-1270,1852,239,256,280,847,867,284,-531,-1573
-832,1321,266,240,147,652,771,94,-553,-956
-354,902,241,147,-9,316,418,-9,-511,-371
-83,421,119,21,-105,140,250,-16,-518,-54
120,70,35,-26,-96,67,97,-139,-713,-23
178,-100,-54,-46,-108,16,-93,-259,-656,88
153,-107,-139,-93,-159,-5,-146,-201,-241,164
146,116,-43,-41,-74,132,-36,-141,28,107
32,446,90,77,112,327,96,-23,242,-68
-122,792,109,122,200,341,149,79,422,-58
-18,1461,57,46,122,59,-57,0,395,151
24,2127,2,-30,26,-144,-237,-137,219,198
-25,2427,5,0,40,-103,-148,-175,-29,-9
52,2304,31,110,101,-18,-74,-168,-202,-149
49,1861,57,129,106,34,-97,-94,-164,-115
-114,1100,103,97,69,43,-70,0,-57,-185
-104,197,28,64,25,-28,-41,54,22,-66
90,-541,-20,52,-3,-150,-141,31,70,95
203,-1175,19,3,-51,-267,-308,8,132,220
124,-1795,-57,-82,-109,-320,-385,-9,102,363
125,-2277,-161,-151,-151,-346,-474,-1,185,540
263,-2445,-183,-193,-201,-370,-533,-56,175,538
328,-2362,-115,-164,-188,-270,-382,-121,13,333
256,-2077,-39,-103,-128,-151,-193,-82,-41,136
203,-1538,-34,-98,-120,-23,184,14,-37,7
298,-908,-165,-242,-259,-96,143,28,169,493
373,-120,-246,-337,-345,-144,50,-82,104,885
360,700,-166,-216,-228,63,336,-1,-99,704
334,1491,-15,-23,-38,244,459,24,-303,558
408,1909,75,92,41,115,152,-169,-538,612
228,1836,-22,-38,-81,-155,-53,-165,-208,480
-41,1398,-34,-25,-21,-122,74,-18,62,1
-312,604,190,205,230,97,196,22,-233,-723
-466,-331,213,272,313,213,195,93,-347,-952
-441,-1083,149,233,282,258,168,132,-397,-930
-158,-1602,83,131,172,228,213,91,-333,-672
-19,-2062,26,38,72,169,292,38,-216,-439
-97,-2344,8,14,38,55,184,64,29,-317
-228,-2253,-11,-10,-1,-77,4,143,413,-160
-376,-1933,9,0,10,-135,-140,255,744,34
-225,-1281,32,27,31,-196,-263,144,655,351
245,-339,-37,-51,-53,-287,-343,-29,373,636
486,512,-77,-61,-68,-297,-384,-66,194,518
556,1400,-61,-24,-43,-275,-428,-114,112,257
819,2412,1,-65,-134,-354,-643,-335,51,481
1029,3140,-87,-220,-308,-488,-808,-480,255,1536
686,3128,-222,-308,-320,-276,-435,-295,447,1836
-146,2596,-204,-177,-99,42,26,52,296,688
-1035,1768,-130,21,132,196,248,164,-112,-486
-1334,670,44,205,298,308,455,265,-152,-892
-1035,-320,129,244,299,324,468,188,-194,-914
-593,-1151,83,157,176,246,380,77,-272,-713
-278,-1912,66,133,101,127,317,57,-221,-387
70,-2579,131,150,123,55,202,-14,-321,-175
198,-3038,192,168,158,35,135,-100,-666,-73
4,-3218,202,178,209,151,210,-304,-1324,-257
-119,-3020,197,204,258,373,366,-466,-1823,-294
-148,-2531,33,120,167,436,397,-473,-1740,-205
-143,-1644,-81,-14,10,283,180,-320,-981,-332
-47,-844,-99,-137,-135,127,162,171,793,-189
173,239,-199,-221,-215,36,260,609,2048,287
529,1450,-166,-206,-239,-82,180,603,1746,509
689,2348,-105,-182,-248,-203,-27,471,1280,698
825,2846,-141,-219,-292,-339,-249,264,1072,1203
1042,3155,-174,-283,-359,-447,-396,-37,800,1248
635,2961,-70,-225,-294,-351,-271,-177,387,519
-225,2214,115,-12,-69,-126,-17,8,124,-449
-877,1488,130,81,56,19,78,215,62,-997
-808,1100,-28,-6,16,-1,30,215,172,-639
-603,858,-26,54,124,53,117,179,121,-461
-346,706,62,186,286,130,208,220,106,-131
-50,909,143,250,338,101,74,187,142,213
-146,1115,171,252,343,64,-14,120,122,366
-406,1242,111,148,266,17,-58,14,-70,5
-283,1669,100,69,120,-4,-76,-142,-446,-790
-208,2097,198,101,65,12,-112,-339,-765,-759
209,3270,245,162,24,167,-25,-448,-1048,193
-100,3574,91,68,-10,158,93,-334,-1142,-328
-235,3572,62,60,24,72,-42,-352,-1123,-625
-206,3269,54,36,21,-9,-119,-174,-446,-649
-203,2792,22,11,-2,-38,-117,76,108,-554
-28,2101,0,-10,-15,32,11,133,102,-214
155,1375,14,-17,9,158,145,105,-92,97
203,743,-47,-48,2,193,104,-8,-207,213
224,262,-185,-109,-82,82,16,-53,-37,235
350,-139,-110,-120,-112,-55,-34,61,415,369
352,-522,-49,-150,-172,-222,-163,160,848,777
336,-555,-121,-220,-256,-356,-281,221,1074,962
380,-344,-93,-157,-201,-315,-287,296,1010,437
299,-145,72,20,-10,-139,-139,326,719,15
43,244,113,83,55,-72,22,334,638,-31
139,934,-11,-4,-28,-190,-132,149,428,197
153,1681,-128,-91,-93,-239,-289,-59,157,248
-111,2821,-82,-62,-41,-218,-417,-143,-93,-24
-146,2669,-50,-53,-8,-149,-420,-120,-48,-22
-153,2229,-51,-36,35,-42,-346,-75,-90,-25
155,1650,-37,-26,41,6,-149,-18,2,265
371,755,0,-7,38,122,335,58,12,278
371,-303,65,21,23,112,458,-25,-168,140
173,-1403,26,22,-19,-57,93,-254,-366,256
59,-2435,96,100,75,-29,-15,-362,-555,219
-70,-3358,88,98,124,78,87,-247,-575,42
-296,-3953,-51,-5,70,141,208,-52,-418,86
-443,-4174,10,75,167,212,276,-62,-766,-291
-422,-4114,112,173,234,202,188,-319,-1365,-365
-500,-3805,49,110,166,231,229,-443,-1463,-402
-516,-3260,-141,-39,-28,148,206,-341,-880,-508
-475,-2582,-288,-238,-254,15,20,-167,37,-411
-408,-1746,-229,-234,-237,153,100,114,919,-311
-26,-792,-54,-59,-86,263,222,233,947,-275
389,-53,45,-19,-58,120,216,246,648,-148
454,357,133,56,8,42,198,377,586,-168
204,531,317,252,220,152,204,447,477,-513
49,193,194,140,153,79,138,457,767,-18
130,-179,-117,-139,-110,-153,-66,321,978,977
204,-514,-152,-149,-118,-153,-117,205,661,812
82,-862,-8,-27,-10,-24,-18,91,191,59
93,-1026,98,45,34,38,8,-53,-125,-98
276,-1098,90,26,-14,-67,-150,-100,-116,107
302,-941,8,-30,-68,-204,-262,-86,5,292
163,-647,-86,-101,-98,-227,-194,-15,142,605
59,-154,-90,-106,-91,-206,-227,-43,88,398
-80,552,-18,-40,-32,-112,-267,-74,-130,-172
-446,1204,47,46,60,10,-200,-85,-294,-606
-463,2000,62,103,122,121,24,-78,-332,-728
-227,2895,50,85,102,189,100,-133,-369,-708
-201,3486,-33,6,53,267,287,-103,-378,-697
-229,3564,-84,-46,0,235,461,14,-389,-582
-177,3324,-41,3,-16,74,242,-26,-389,-317
-95,2734,41,110,52,27,41,-30,-187,83
29,1774,95,170,137,139,92,59,-32,326
-17,761,93,141,147,253,264,47,-139,163
151,-38,90,97,94,186,182,-35,-184,61
276,-702,10,33,27,29,34,-7,-32,242
240,-1338,-19,-5,-26,-99,-71,-42,7,165
118,-1847,-52,-39,-81,-184,-221,-59,152,-45
178,-2022,-104,-44,-85,-155,-350,17,370,138
94,-2000,-204,-51,-78,-50,-388,-2,233,264
-170,-1755,-247,-60,-31,38,-348,-86,136,158
-203,-1332,-192,-8,60,155,-206,-147,-20,-34
-159,-826,-57,72,162,185,-170,-161,-161,-145
-186,-171,79,120,214,135,-213,-153,-211,-193
-61,515,90,82,168,102,-20,-133,-223,-83
125,914,114,76,127,132,413,-11,-163,83
224,859,125,86,97,50,340,15,-169,232
257,549,80,50,23,-129,22,-74,-200,267
389,-61,-17,51,-34,-291,-186,-89,-190,390
216,-1037,-141,-18,-113,-360,-294,-51,-55,320
-57,-1963,-150,-62,-114,-255,-219,-33,-12,145
-467,-2771,0,-8,-23,2,10,-78,-199,-134
-464,-3332,51,-17,-27,25,-47,-31,-96,-237
35,-3637,33,-64,-112,-66,19,94,77,-75
183,-3763,32,-70,-109,-43,283,158,-1,23
-107,-3733,95,-5,-38,6,335,78,-255,-124
-229,-3435,109,24,4,75,379,-40,-509,-290
-55,-2846,122,56,43,139,355,-67,-571,-101
232,-2113,42,-23,-39,73,240,32,-218,259
543,-1224,-80,-106,-160,-75,17,1,54,548
585,-301,-157,-217,-286,-228,-184,-141,185,713
471,425,-97,-250,-314,-248,-292,-267,211,441
303,696,-148,-297,-342,-263,-317,-2,776,482
181,676,-138,-263,-286,-213,-257,159,1016,526
144,493,-37,-130,-135,-151,-219,41,669,251
-220,-126,64,81,112,-64,-123,83,232,-332
-454,-848,43,149,211,-69,-153,148,61,-513
-259,-1319,-80,0,89,-145,-214,186,383,-183
-62,-1658,-100,-86,0,-165,-310,129,509,-45
-119,-2135,-91,-81,33,-1,-255,4,231,-34
76,-2365,-184,-190,-74,19,-131,-20,301,668
235,-2230,-132,-173,-114,-2,71,137,320,730
-142,-2105,126,126,130,163,284,376,67,-193
-498,-1735,353,341,309,325,462,529,-49,-694
-318,-961,213,148,109,177,261,372,73,-282
-34,-202,0,-73,-89,3,70,81,83,218
279,649,7,-91,-114,-19,80,-136,-161,104
533,1526,89,14,-59,-26,-54,-280,-479,59
557,2091,126,13,-80,-24,-91,-158,-354,448
405,2137,58,-77,-153,-40,-114,-31,-138,513
-40,1818,-40,-98,-89,48,11,-42,-228,-175
-192,1382,46,17,56,99,138,-108,-365,-523
-162,755,115,48,36,-70,-56,-226,-340,-465
-205,106,98,49,33,-61,-39,-222,-255,-350
-278,-445,90,140,156,115,138,-120,-402,-594
-334,-769,73,229,265,203,145,89,-359,-779
-398,-679,139,212,237,114,-25,162,-111,-654
-443,-418,173,189,199,62,-108,123,125,-516
-335,-26,128,134,146,89,-30,184,322,-391
-146,517,27,11,42,71,74,213,366,-186
-146,1176,-39,-55,6,27,37,116,233,-134
-149,1872,-126,-124,-54,-32,-139,5,179,-13
-51,2558,-161,-191,-136,-49,-211,-75,90,215
58,3299,-238,-251,-186,-25,-50,-54,116,523
346,4002,-253,-286,-252,-102,76,-25,154,898
731,4336,-111,-193,-279,-247,-31,-115,68,937
447,3983,-18,-71,-193,-165,84,-38,7,405
4,3276,-76,-71,-109,-62,29,64,-12,-89
123,2384,-26,-35,-30,17,-18,-19,-304,-200
-111,1196,81,75,105,217,256,-81,-602,-418
-339,137,2,37,110,292,514,-20,-451,-262
-239,-659,47,47,89,185,424,-55,-347,57
-189,-1316,236,195,158,127,270,-53,-278,-122
-166,-1807,260,247,195,126,259,86,4,-250
122,-1724,143,138,90,22,165,259,394,127
393,-1121,83,48,3,-99,-44,157,299,397
114,-885,-84,-5,-33,-126,-109,30,107,280
-124,-420,-193,-36,-47,-121,-71,128,345,181
47,522,-86,-22,-43,-149,-110,2,279,303
411,1540,24,1,-44,-144,-183,-209,-54,387
558,2771,103,29,-16,-82,-226,-312,-311,358
295,3787,90,43,22,25,-92,-235,-340,113
-11,4290,39,27,-2,27,-39,-238,-401,-272
-263,4501,-163,-86,-97,-2,-37,-148,-153,-92
-178,4601,-302,-182,-153,-35,-24,43,400,247
-8,4429,-146,-36,-26,23,73,159,589,226
-118,4052,40,98,87,113,203,292,551,-69
-463,3464,49,122,137,133,160,279,358,-370
-702,2941,87,150,171,123,86,161,64,-651
-408,2636,122,156,141,35,-54,35,-113,-513
106,2516,125,115,67,-86,-235,-74,-260,-329
337,2563,13,-8,-45,-189,-319,-148,-342,-46
361,2632,-66,-99,-112,-236,-350,-250,-388,523
449,2819,-14,-74,-106,-237,-453,-472,-532,878
401,3074,-15,-40,-97,-210,-491,-546,-539,973
43,3241,-122,-65,-76,-92,-215,-357,-281,446
-298,3513,-104,-6,48,164,192,-189,-284,-368
-344,3856,4,73,140,301,350,-149,-422,-890
-293,3922,31,82,146,359,441,-69,-489,-946
-297,3489,-25,13,58,269,449,152,-132,-621
-516,2685,-50,-2,12,139,373,454,417,-611
-517,1673,13,36,34,68,226,481,587,-553
-398,428,94,111,130,122,147,274,431,-359
-151,-778,88,89,133,120,43,139,245,-108
165,-1789,27,17,86,72,-14,70,117,79
400,-2628,-38,-63,-1,-20,-40,52,218,444
400,-3386,-29,-63,-30,-112,-98,36,269,454
228,-3806,52,20,26,-141,-111,50,95,114
-131,-3966,86,67,96,-99,-95,77,120,-117
-373,-3885,66,82,110,-69,-89,217,369,-295
-331,-3377,31,49,22,-187,-224,277,462,-287
-4,-2663,42,3,-48,-298,-457,122,316,-20
388,-1905,20,-33,-89,-376,-716,-132,56,331
600,-1048,-12,-73,-134,-477,-914,-165,97,697
594,-291,-62,-118,-211,-503,-906,-173,209,912
315,47,-129,-164,-270,-418,-677,-144,191,854
-113,3,-54,-57,-131,-138,-310,-3,229,408
-398,-116,-22,28,14,370,329,40,45,-311
-181,-335,-5,11,21,693,820,12,-219,-384
67,-743,-20,-16,-27,600,824,-19,-273,18
31,-1112,23,29,2,415,745,-33,-375,57
-36,-1356,109,104,83,274,635,-52,-607,-77
123,-1405,147,105,60,60,265,-179,-772,57
305,-1253,98,46,-4,-72,33,-300,-797,128
187,-925,70,30,17,33,241,-164,-528,-213
-191,-522,-53,-35,-16,81,382,205,151,-503
-169,162,-95,-79,-84,-18,221,310,522,-440
228,1159,-33,-53,-80,-81,82,229,474,-94
450,2130,26,-13,-42,-67,-6,176,388,175
273,3139,-1,-20,-32,-31,-86,120,407,271
82,4200,-85,-96,-114,-97,-207,72,475,342
-233,5015,-184,-178,-199,-219,-334,48,464,177
-311,5325,-271,-212,-215,-297,-414,25,453,186
49,5335,-240,-118,-146,-261,-456,-103,175,-50
147,4940,-132,-29,-21,9,-162,-147,-67,-221
17,4065,-210,-44,55,227,205,-73,22,146
-265,3017,-152,73,192,160,106,-86,61,198
-466,2089,110,222,327,110,30,-124,-107,-330
-272,1410,141,173,268,-10,-142,-175,-204,-421
100,853,67,18,80,-193,-374,-246,-114,20
86,428,28,-71,-80,-249,-413,-227,-89,142
192,379,65,-22,-129,-172,-167,-118,-168,-29
383,578,61,-32,-223,-121,79,-143,-259,384
561,985,-64,-223,-468,-250,-100,-304,-196,1578
215,1360,36,-111,-283,-48,-28,-302,-591,791
-567,1604,229,206,174,405,440,48,-748,-688
-784,2138,261,315,317,615,572,227,-542,-983
-464,2823,164,189,169,480,417,134,-334,-547
-340,3238,63,85,44,295,373,152,45,-180
-362,3236,-52,-20,-55,158,423,247,310,-54
-328,3044,-127,-88,-109,-22,243,313,516,-118
-188,2674,-135,-108,-141,-139,46,383,735,-195
204,2215,-111,-109,-125,-151,-56,302,620,-64
719,1856,-26,-68,-94,-183,-173,113,400,430
790,1483,104,37,2,-193,-249,49,268,402
240,1065,94,103,97,-225,-386,134,335,-9
-6,844,13,87,134,-344,-629,8,226,-23
68,908,34,95,143,-423,-800,-210,-94,-87
-53,1016,63,92,132,-416,-788,-248,-229,-454
-229,1207,1,36,32,-429,-732,-133,-35,-492
-225,1636,-26,56,8,-254,-571,-114,-63,-411
-76,2092,87,64,22,186,-91,-208,-299,-368
-137,2498,81,39,56,659,670,-86,-458,-449
-347,2876,-81,-60,10,797,1052,160,-307,-346
-202,3214,-182,-141,-114,461,799,186,-105,1
371,3352,-71,-144,-171,0,315,-48,-264,428
732,3080,-43,-160,-185,-167,6,-377,-501,789
813,2447,-52,-203,-186,-24,128,-440,-457,850
444,1413,-50,-171,-139,108,294,-319,-350,509
-8,186,-22,-47,21,148,309,-24,-107,305
-281,-906,32,94,179,201,327,227,0,-234
-211,-1656,107,132,175,130,238,286,224,-383
-68,-2202,128,83,86,-1,59,264,476,-38
14,-2540,69,30,39,-66,-68,187,479,444
261,-2441,14,-34,-17,-140,-171,101,530,521
188,-2207,-36,-8,-2,-103,-146,94,357,-254
-228,-1860,-199,-104,-63,-116,-132,64,192,-468
-348,-1281,-300,-286,-219,-233,-216,-34,210,143
-288,-675,-175,-204,-133,-105,-91,-23,-42,-13
-348,-42,-16,-12,53,97,61,20,-309,-306
-329,548,83,138,183,206,115,59,-467,-277
-369,937,145,304,300,310,259,92,-574,-148
-507,863,61,355,339,391,387,62,-760,-234
-402,569,23,242,259,356,290,-3,-788,-487
-269,3,32,101,118,269,188,27,-442,-692
-121,-800,-15,-31,-29,132,115,53,-219,-353
34,-1567,-12,-57,-71,29,50,-5,-160,118
52,-2225,52,17,0,10,22,15,35,215
111,-2745,46,43,11,-32,-28,-19,120,248
155,-3097,-60,-39,-79,-121,-81,172,589,228
408,-3008,-104,-139,-211,-288,-225,261,992,337
680,-2587,-38,-127,-218,-385,-375,175,1021,571
787,-2102,9,-96,-187,-393,-438,190,1035,765
733,-1513,36,-96,-167,-398,-509,-15,662,674
453,-1007,-43,-139,-186,-428,-544,-73,506,654
-661,647,-15,128,198,405,153,-137,-285,-548
-697,152,2,99,138,328,250,-10,-160,-501
-496,-555,80,141,165,236,245,-53,-269,-504
-250,-1413,100,117,126,173,137,-175,-372,-254
-87,-2269,146,159,122,118,-49,-253,-519,-157
24,-3014,59,59,23,38,73,-252,-656,-109
94,-3624,-64,-95,-102,-57,284,-96,-537,70
137,-4051,-114,-163,-170,-162,80,102,-153,202
84,-4154,-121,-175,-171,-171,-67,175,48,276
56,-3995,-97,-156,-153,-167,-115,190,230,499
189,-3523,-49,-98,-113,-149,-147,249,489,619
371,-2701,14,-20,-34,-107,-193,74,325,602
90,-1920,54,137,151,-15,-212,-72,134,470
-165,-951,1,114,150,-67,-334,-199,64,30
-214,78,-64,8,55,-93,-287,-264,7,-384
-324,933,-45,11,87,56,22,-28,118,-415
-424,1415,-72,-7,82,140,179,167,242,-317
-390,1562,18,4,45,181,221,162,272,-344
-213,1538,171,117,67,159,79,40,-30,-332
114,1192,238,168,34,35,-117,-110,-296,-116
309,667,227,123,-25,-69,-143,-179,-463,43
211,72,107,23,-59,-157,-203,-203,-549,229
250,-395,17,-69,-114,-207,-304,-275,-556,481
350,-724,-49,-131,-145,-93,-238,-305,-405,456
162,-972,-118,-147,-138,50,-45,-222,-176,123
-198,-1054,-96,-111,-100,75,171,-23,177,-290
-329,-908,10,-14,-6,-25,169,163,441,-391
-209,-532,67,50,54,-203,-43,242,476,-173
0,-83,142,157,160,-183,-83,269,375,38
193,363,206,179,205,-65,-10,283,310,184
210,902,133,97,140,14,-71,132,198,180
-25,1354,57,43,82,78,-100,-4,62,117
-117,1536,-21,-9,26,49,-211,-67,159,359
171,1374,-178,-170,-127,-64,-224,-142,256,676
440,891,-293,-258,-222,-76,-27,-124,21,430
497,58,-193,-183,-157,2,174,-127,-341,-37
168,-1171,-107,-104,-58,144,466,-104,-479,-104
-246,-2375,-25,-33,16,187,425,-63,-393,-28
-485,-3468,76,96,156,292,428,-30,-374,-149
-574,-4364,162,212,293,415,544,4,-335,-154
-306,-4878,49,189,249,321,394,1,-202,-86
265,-4916,-2,137,175,124,155,-178,-391,48
292,-4788,5,77,103,-9,79,-295,-774,97
-3,-4564,90,76,112,21,113,-171,-810,-168
-137,-3975,166,145,191,62,48,28,-440,-402
-71,-3166,195,144,176,16,-92,118,-1,-350
229,-2191,102,24,3,-173,-353,234,656,61
531,-1137,-108,-204,-224,-357,-432,374,1443,761
624,-270,-180,-266,-268,-353,-327,221,1361,922
469,10,-146,-222,-214,-299,-241,115,891,650
-10,-107,-98,-153,-148,-199,-128,126,583,77
-300,-355,-60,-92,-83,-136,-148,93,322,-333
-301,-821,-77,-77,-48,-52,-171,49,176,-190
-311,-1474,-175,-171,-105,63,-25,4,68,136
-313,-2014,-155,-147,-59,210,211,42,34,81
-250,-2416,-62,-60,30,218,173,66,10,-85
18,-2671,42,15,80,60,-64,43,-8,-166
189,-2754,34,-21,10,-114,-57,17,7,-154
154,-2515,-60,-85,-86,-215,-16,-42,-13,85
520,-1909,-123,-87,-154,-389,-418,-236,-3,616
729,-1121,-123,-51,-132,-491,-688,-311,43,714
145,-310,64,115,71,-332,-610,-282,-151,36
-495,554,204,267,288,43,-157,-132,-367,-731
-862,1573,207,302,376,448,457,95,-427,-1205
-753,2813,139,209,279,609,670,132,-446,-1172
-243,3962,75,78,87,411,287,-70,-493,-506
91,4340,47,26,-13,175,116,-146,-547,137
162,4267,76,19,-45,101,199,-150,-645,456
84,3934,47,12,-33,173,320,-164,-738,351
-29,3286,-11,-30,-46,151,390,-188,-725,188
-191,2533,-67,-75,-85,-19,198,-94,-190,124
-317,1810,-62,-44,-45,-60,142,146,291,-132
-29,1221,72,57,33,-8,233,214,163,-399
292,643,161,114,55,-23,143,167,231,-345
353,244,131,96,41,-66,5,202,582,-79
136,98,41,91,65,-29,-34,291,724,-31
-207,83,-23,81,91,34,-50,217,562,-106
-269,378,2,47,62,-9,-170,67,362,-48
-96,840,71,87,78,-87,-293,11,198,-96
149,1306,8,116,92,-177,-315,102,214,-105
406,1842,51,81,50,-295,-367,109,271,203
516,2202,-36,-115,-141,-429,-494,-8,365,862
388,2069,-192,-237,-264,-408,-432,-44,339,808
151,1307,-215,-170,-186,-258,-319,-47,162,305
-57,194,-90,-86,-54,-43,-82,-79,-50,66
-20,-1198,-48,-30,31,119,147,-147,-204,119
83,-2728,33,64,141,199,207,-285,-557,-197
-195,-4274,63,135,238,276,384,-212,-683,-435
-453,-5641,-52,74,212,281,532,18,-468,-72
-271,-6504,-125,-34,110,188,283,-45,-555,154
-36,-6936,-132,-154,-35,123,93,-194,-767,194
42,-7000,-89,-185,-122,194,213,-193,-661,-15
80,-6681,78,-24,-38,273,374,-126,-459,-370
154,-5966,294,182,94,269,379,-32,-299,-554
11,-4875,309,165,36,169,254,121,194,-495
-320,-3686,168,62,-22,89,179,261,787,-266
-423,-2328,57,8,-27,37,85,230,647,-75
-280,-764,-9,-40,-34,-14,-19,111,246,-74
-124,773,-29,-54,-57,-74,-119,42,140,-40
62,1928,-42,-73,-86,-134,-178,32,205,98
302,2669,-34,-95,-103,-194,-254,-14,171,279
517,3127,-50,-113,-125,-264,-313,-53,186,530
566,3131,-139,-185,-180,-328,-331,14,473,903
357,2749,-239,-244,-238,-321,-347,45,632,995
-3,2476,-119,-107,-106,-108,-183,93,399,267
-221,2328,-35,30,23,82,-10,96,61,-216
-242,2204,24,76,49,176,161,64,-73,-179
-167,2171,132,122,86,240,250,68,-124,-262
-117,2297,144,152,133,198,150,46,-151,-361
-73,2508,136,138,107,80,49,-10,-133,-333
54,2899,115,152,82,-11,-58,-83,-143,-138
84,3375,55,111,65,-73,-198,-203,-303,46
100,3805,76,81,51,-97,-207,-284,-532,141
43,4242,96,81,48,-94,-130,-280,-680,218
-221,4568,30,61,48,-49,-17,-145,-675,-6
-399,4655,-53,-1,0,-23,46,86,-382,-285
-305,4345,-101,-75,-84,-78,-172,189,105,-192
-74,3739,-58,-60,-75,-17,-191,80,260,22
96,2789,-22,-18,-23,114,189,59,173,181
85,1444,6,12,15,93,364,72,-73,139
-101,57,-4,-26,-37,-49,156,33,-70,5
-236,-1180,-77,-109,-126,-150,-8,51,132,22
-36,-2172,-106,-115,-127,-89,-52,-43,27,95
242,-3029,-110,-109,-126,0,-13,-62,-54,133
431,-3580,-169,-131,-139,-19,17,95,270,314
497,-3837,-124,-154,-133,-128,-76,159,639,427
387,-4037,-52,-130,-62,-91,-81,180,818,329
313,-3944,31,-38,33,-12,-47,27,596,199
263,-3719,107,60,111,-12,-102,59,578,233
320,-3287,2,-39,-2,-212,-363,-21,506,562
201,-2706,-67,-30,-7,-284,-485,-113,182,272
-42,-2236,51,100,142,-137,-330,-34,-182,-435
-105,-2061,89,99,136,-85,-308,-45,-289,-512
-74,-2317,-28,-21,-2,-180,-482,-79,-98,-162
-69,-2822,-59,-46,-48,-136,-435,-104,25,4
-232,-3631,-22,12,17,120,17,-70,-51,-98
-212,-4440,95,84,92,324,295,-66,-253,-283
-241,-5169,161,130,135,467,445,-41,-342,-489
-344,-5941,139,111,107,377,418,28,-291,-508
-14,-6402,115,68,36,103,260,-32,-358,-454
381,-6553,132,63,22,-5,214,-42,-374,-301
-50,-6527,181,139,112,70,158,-23,-442,-289
-558,-6213,156,159,164,109,141,-59,-558,-151
-493,-5542,91,98,115,60,241,-55,-712,17
-186,-4468,56,41,58,33,217,-103,-863,-41
117,-3191,3,-10,21,92,212,-78,-639,82
200,-1805,-48,-38,0,172,364,38,-200,268
159,-478,-96,-67,-35,193,479,58,11,122
287,702,-97,-52,-43,107,346,52,171,30
448,1425,-187,-90,-118,-27,118,125,482,442
372,1651,-177,-137,-181,-79,0,247,771,628
49,1596,-43,-61,-98,8,0,259,647,256
-148,1255,-61,-72,-82,-15,-78,281,742,96
-270,957,-71,-64,-78,-77,-102,304,802,-154
-286,830,-9,4,-25,-93,-61,201,547,-455
-259,788,12,44,20,-83,-132,61,322,-329
-287,788,-94,36,34,-8,-112,44,226,-213
-240,966,-56,63,56,97,-7,31,6,-334
-93,1382,50,83,70,56,-78,-36,-154,-334
37,1953,33,29,5,-105,-259,-97,-111,-211
176,2711,-24,-53,-101,-254,-442,-136,36,31
212,3454,-110,-119,-136,-201,-372,-167,93,269
138,4103,-164,-172,-162,-41,-108,-176,28,392
89,4892,-129,-142,-156,-69,-120,-132,60,574
-50,5538,35,18,-6,-24,-224,-74,70,563
-239,5787,147,137,140,168,-54,0,22,187
-360,5549,126,129,155,304,332,63,-113,-383
58,5118,61,71,64,214,448,79,-205,-334
384,4373,-56,28,-9,25,220,31,-189,167
250,3193,-129,-51,-94,-144,-104,-101,-222,184
-60,1962,-87,-94,-118,-175,-244,-133,-166,-143
-190,1002,-71,-89,-76,-78,-80,-67,-34,-280
19,282,-56,-85,-42,46,225,57,-48,-158
408,-241,50,-3,9,164,386,107,-209,64
453,-494,133,79,67,131,302,12,-329,148
283,-485,92,34,12,-46,100,-52,-186,286
205,-256,18,2,-31,-174,-55,-36,54,439
206,236,25,-10,-39,-238,-174,-17,198,443
132,676,18,-7,-33,-245,-266,24,284,226
-144,1266,-95,-34,-1,-194,-286,113,242,-64
-292,2113,-192,-46,29,-149,-298,95,101,-209
-76,2985,-174,-70,19,-103,-385,0,-4,-181
174,3469,-132,-111,-33,-177,-574,-138,-69,-96
-52,3329,-6,-19,51,-197,-632,-279,-214,-258
-316,2848,83,61,120,-98,-436,-222,-160,-291
-323,2129,146,103,87,10,-125,-111,-137,-164
-373,1179,228,229,89,59,77,68,-11,-324
-391,257,254,246,35,101,121,226,201,-428
-207,-492,148,70,-105,180,172,238,199,-213
22,-1198,-60,-133,-195,251,256,69,46,123
185,-1749,-81,-147,-154,166,128,-60,-16,325
298,-1931,54,-35,-79,-80,-58,-31,54,338
179,-2000,102,30,-12,-221,-115,135,253,377
-6,-1843,71,26,16,-169,-75,137,192,286
-7,-1388,35,6,3,-120,-57,75,84,214
117,-783,23,-4,-30,-50,-27,23,72,282
52,-51,-28,-60,-59,134,162,-26,71,301
46,666,-255,-226,-171,282,462,-89,132,580
258,1241,-336,-282,-208,202,443,-203,-46,482
226,1281,-226,-170,-132,116,321,-200,-243,28
-17,935,-194,-16,15,190,331,-26,-295,-399
-183,465,-209,-2,32,173,259,-15,-397,-694
-261,-358,-101,-6,6,127,198,-59,-409,-709
-214,-1226,113,112,84,192,337,111,-267,-486
-70,-1825,185,189,149,224,395,179,-141,-184
-43,-2122,217,255,186,189,293,123,-95,-63
-4,-2341,300,249,133,108,154,53,-137,-129
-55,-2433,224,145,75,57,64,-122,-435,-76
-81,-2266,138,80,88,86,4,-359,-847,-73
120,-1738,85,25,74,67,-63,-506,-1155,85
263,-887,70,9,43,16,-103,-490,-1165,220
142,-141,65,10,25,3,-134,-306,-681,-75
-88,562,-40,-85,-71,25,-16,129,324,-244
-92,1485,-140,-176,-152,-20,53,430,1224,-38
155,2449,-84,-151,-148,-125,-114,370,1490,79
399,3074,6,-97,-112,-140,-163,342,1248,145
477,3168,-13,-111,-122,-188,-192,322,957,418
152,2778,-128,-160,-139,-209,-214,256,794,494
-230,2003,-155,-104,-57,-131,-183,223,549,145
-272,1137,-113,-18,13,-119,-217,167,284,-66
9,356,-115,-9,6,-145,-296,88,221,247
382,-367,-72,-57,-29,-183,-348,27,285,789
483,-1062,-48,-74,-36,-173,-327,92,404,971
114,-1753,-28,9,29,-68,-236,116,310,453
-431,-2206,-87,85,93,51,-55,69,43,-276
-516,-2266,-58,96,90,108,123,-59,-306,-846
-256,-1582,165,97,66,244,386,-240,-615,-862
-221,-1005,192,125,100,248,478,-214,-608,-436
-237,-360,171,168,172,215,505,-54,-528,-271
-301,509,141,219,239,215,353,-115,-679,-334
-402,1325,187,219,253,210,235,-251,-837,-494
-266,1775,168,181,216,133,125,-302,-869,-419
-67,1896,40,53,60,-37,-78,-297,-629,-15
45,1798,-52,-36,-47,-162,-219,-234,-196,79
-19,1256,-64,-80,-89,-171,-201,109,552,-61
-125,552,-60,-41,-39,-61,-115,248,736,-134
-37,84,-61,19,7,-10,-82,108,508,-137
13,-249,28,40,21,-12,-86,78,439,-129
33,-540,21,19,2,-33,-119,27,232,-33
26,-605,-100,-104,-120,-95,-100,43,273,102
62,-302,-127,-153,-171,-76,-16,73,239,89
130,145,-40,-82,-95,-29,-5,-18,-40,136
140,715,-59,-51,-60,-48,-5,-26,-195,270
183,1424,-101,-59,-66,-92,-64,34,-196,360
176,2126,-116,-85,-58,-129,-203,76,-43,196
182,2928,-27,-29,0,-106,-272,11,-14,-78
22,3538,26,34,86,-82,-318,-63,54,-155
-39,3862,-11,-1,82,-158,-392,-8,212,-177
29,3719,-63,-84,1,-217,-427,-55,196,-41
212,3225,-88,-110,-69,-275,-508,-185,135,238
446,2415,-87,-79,-67,-328,-523,-147,204,598
558,1231,34,93,57,-248,-405,16,288,736
131,-110,160,217,171,-24,-167,80,226,422
-363,-1391,14,53,85,192,252,88,176,214
-511,-2541,-124,-81,4,331,624,182,192,197
-415,-3412,-23,-25,31,392,800,340,144,-93
-233,-3849,122,61,46,268,544,241,-129,-568
-141,-4060,173,114,52,181,230,27,-387,-717
57,-4101,142,43,-77,90,155,-91,-471,-164
259,-3921,53,-89,-193,-30,286,-117,-511,516
416,-3679,-10,-142,-201,-130,247,-156,-517,750
495,-3282,-29,-153,-222,-256,-133,-426,-721,391
291,-2808,-23,-88,-129,-142,-218,-460,-675,-8
-148,-2444,68,70,87,233,143,-23,-232,-521
-334,-2248,171,183,216,420,327,270,199,-775
-167,-2240,174,166,173,304,269,243,379,-612
-162,-2476,126,111,97,150,149,110,216,-515
-331,-2968,90,75,39,51,-13,-33,4,-458
-370,-3579,71,43,21,24,-81,-59,120,-324
-171,-4116,71,48,54,123,13,-69,72,-208
92,-4593,75,56,79,165,22,-36,32,-81
139,-5018,98,97,107,91,-95,-13,42,-41
-57,-5285,19,57,63,-13,-143,60,178,70
-213,-5034,-142,-36,-29,-131,-143,120,298,302
-168,-4421,-139,-79,-74,-226,-255,63,206,433
-113,-3652,-94,-55,-35,-257,-435,23,52,260
-84,-1968,-154,-89,-66,-345,-512,37,206,111
-6,-1016,-193,-129,-135,-366,-615,-84,209,188
51,-17,-205,-169,-199,-356,-751,-172,223,363
122,813,-237,-230,-257,-209,-495,-135,257,532
149,1138,-264,-279,-263,116,336,36,131,513
358,1175,-126,-195,-157,455,1056,169,-32,152
582,936,32,-40,-14,417,835,115,-80,-77
543,200,35,23,47,221,436,84,81,81
448,-548,65,56,45,72,305,62,80,271
246,-1079,108,101,38,-21,257,13,-19,312
-92,-1674,144,155,73,-5,175,-78,-206,97
-482,-2344,177,196,130,103,217,-63,-403,-395
-566,-2634,122,171,134,139,274,46,-435,-529
-424,-2428,135,194,133,121,203,17,-526,-436
-234,-1977,181,175,76,31,-6,-122,-553,-247
-94,-1262,35,59,-29,-26,-132,-156,-374,-138
-30,-343,-80,-64,-88,47,-22,-27,18,-133
92,598,-82,-93,-102,-11,-66,124,392,-5
178,1655,-106,-100,-113,-158,-229,191,591,231
186,2742,-91,-96,-124,-264,-368,67,369,470
72,3391,-102,-95,-112,-253,-427,-45,184,427
175,3684,-56,-60,-80,-162,-352,-125,33,364
272,3723,-6,-19,-59,-82,-182,-18,60,287
128,3262,-23,-18,-45,-92,-122,86,215,128
114,2535,-26,10,0,-76,-89,-36,115,48
-159,1687,39,56,88,64,145,-34,1,-237
-342,889,37,76,130,79,174,38,-17,-257
-225,275,122,154,159,-21,-55,62,-21,-311
-131,-256,69,150,105,-137,-272,32,43,-344
-230,-596,42,105,81,-144,-363,0,100,-292
-177,-681,49,72,70,-69,-348,-44,72,-98
-204,-667,-20,53,108,102,-11,-115,-64,-58
-301,-399,-128,22,139,255,372,-87,-88,-6
-104,74,-148,-46,117,235,492,14,-86,222
227,743,-138,-119,39,18,183,47,40,521
351,1448,-112,-143,-39,-102,26,73,142,567
246,1924,-67,-139,-112,-33,91,56,57,163
77,2028,-17,-97,-129,94,179,-54,-137,-357
-13,1707,30,-35,-129,165,185,-147,-244,-405
-143,1166,36,-40,-168,109,123,-97,-206,-306
-131,392,41,-51,-121,25,67,-61,-295,-282
14,-530,51,-38,-69,-37,54,-43,-337,-19
57,-1404,1,-46,-39,-26,100,27,-324,120
173,-2113,-38,-69,-23,16,134,36,-359,166
198,-2703,-70,-104,-42,34,77,48,-163,253
108,-3071,-34,-51,-19,44,51,-82,-234,181
102,-2997,-29,-5,-5,-13,-6,-208,-298,145
126,-2631,5,-30,-73,-163,-162,-182,-81,187
14,-2257,45,0,-54,-153,-126,47,325,145
-155,-1657,80,53,16,-4,155,316,677,-92
-257,-945,92,77,56,117,237,276,517,-292
-345,-112,52,60,70,152,185,139,263,-343
-456,804,18,50,93,167,177,121,177,-425
-284,1561,21,54,111,143,126,38,60,-307
46,1982,37,34,93,26,-34,-111,-101,-151
216,2074,51,19,62,-94,-202,-151,-104,-77
221,1763,-17,-50,-28,-200,-277,-14,206,286
246,1136,-126,-136,-127,-271,-310,67,532,699
262,587,-21,-11,-18,-210,-301,22,273,311
194,129,51,92,77,-119,-202,-9,-85,-104
201,-213,54,50,29,-117,-100,-76,-134,-86
295,-523,16,-10,-35,-100,-131,-90,70,199
328,-677,56,-3,-28,0,-74,-135,-36,95
89,-622,40,-27,-27,111,42,-132,-166,-114
-168,-466,54,33,49,255,219,-3,-152,-140
-197,40,0,18,52,272,325,27,-155,188
-179,762,18,45,71,232,329,-76,-381,169
-72,1589,49,94,88,146,228,-196,-595,62
-192,2512,-33,19,5,-32,19,-239,-553,26
-356,3307,-64,-42,-55,-106,-86,-235,-516,0
-283,3747,8,30,8,-46,-81,-239,-556,-42
-187,3768,122,149,108,34,-83,-155,-369,-208
-97,3561,104,131,97,20,-76,-98,-8,-203
-51,3061,-40,-3,-10,-32,-6,90,672,-65
49,2385,-76,-48,-43,-23,35,251,782,-139
188,1786,3,-45,-49,-13,49,352,573,-85
317,1290,32,-42,-43,-22,56,468,528,0
683,1000,40,-68,-98,-138,-46,357,424,92
554,649,-20,-81,-118,-210,-137,163,305,255
13,407,-102,-97,-137,-283,-255,124,478,638
-315,449,-107,-20,-97,-290,-315,112,503,374
-518,707,-31,67,-11,-174,-259,64,179,-329
-402,1143,19,102,58,-107,-286,-12,-103,-537
-206,1499,-38,67,45,-130,-422,-59,-99,-305
-153,1872,-73,-13,-29,-155,-505,-111,-57,-215
-61,2268,-87,-58,-58,-27,-146,-154,-122,-326
-20,2408,-88,-43,3,134,113,-39,-45,-174
-155,2090,-61,-11,48,184,178,124,53,-14
-238,1484,-44,-34,-2,78,173,113,19,44
-217,668,-17,-40,-18,-6,77,21,12,-29
-163,-398,-21,-36,-7,71,152,-47,-92,-205
-106,-1499,37,9,67,230,326,-109,-323,-240
117,-2456,36,28,77,237,246,-192,-457,-81
469,-4146,89,53,47,83,208,-198,-666,459
290,-4712,68,33,11,-39,99,-163,-693,337
-59,-5007,23,5,14,-165,-73,-11,-350,28
-138,-4950,34,28,26,-212,-208,67,62,-48
-34,-4441,65,38,61,-130,-295,-77,149,-188
-29,-3727,72,44,103,65,-127,-82,304,-437
-52,-3006,101,55,135,297,218,-18,328,-573
-10,-2040,85,28,104,372,374,-3,238,-415
-30,-1059,2,-23,38,263,278,40,202,-25
-55,-40,12,36,53,59,-102,-23,61,-85
209,109,11,27,5,-97,-319,-106,25,112
492,-37,-57,27,16,-216,-362,-144,56,345
333,-647,-35,47,61,-122,68,-6,101,158
171,-1325,-85,-35,-10,-105,218,36,117,180
-18,-1993,-208,-162,-121,-109,76,-92,157,683
-167,-2630,-177,-209,-152,-3,178,-78,91,455
-74,-3093,-42,-121,-108,102,466,70,-58,-137
67,-3255,78,-3,-39,153,477,200,5,-77
-46,-3135,81,14,-62,129,265,167,40,-45
210,-2596,51,-47,-177,-14,5,57,86,107
171,-1933,16,-63,-158,-96,-74,20,-29,2
37,-1155,-19,-61,-119,-72,-55,60,-115,-44
-132,-239,38,33,-81,38,26,90,-127,-70
-203,856,129,138,-12,109,116,23,-275,-65
-165,1820,161,154,58,169,171,-51,-454,114
-108,2380,96,110,88,193,92,-126,-640,147
18,2592,14,76,89,217,171,-182,-816,-112
176,2585,19,26,52,217,263,-167,-728,-224
130,2105,-22,-93,-69,50,94,60,0,-89
-26,1400,-89,-117,-106,-77,-2,229,536,89
-20,842,-5,-29,-52,-140,-96,238,620,128
47,392,39,-15,-47,-220,-189,155,497,3
69,4,-32,-67,-71,-261,-192,166,482,-211
85,-258,-31,-32,-18,-226,-244,113,359,-344
20,-256,-21,-8,33,-159,-296,33,199,-300
-102,-85,3,12,79,-81,-251,-43,9,-393
-246,244,4,24,100,-130,-223,40,170,-232
-333,814,-133,-46,14,-279,-306,112,428,125
-231,1477,-240,-93,-44,-312,-313,-16,281,311
-7,2266,-132,-59,-39,-216,-240,-130,50,413
369,3173,-117,-56,-74,-119,-252,-203,-74,532
601,3816,-47,-70,-100,-16,-190,-97,44,649
275,3864,8,-31,-47,109,33,79,175,475
-365,3484,39,48,47,263,299,147,64,-160
-563,2938,104,149,167,448,586,161,-77,-824
69,2425,28,40,58,316,580,93,-19,-503
309,1909,-72,-91,-88,-3,213,4,28,10
30,1389,-51,-65,-60,-91,20,5,-65,-43
-190,876,36,25,37,-40,-56,-10,-165,-136
-4,592,121,94,100,6,-105,-58,-171,68
101,546,88,47,64,-73,-185,-85,-75,203
97,723,5,-19,3,-115,-161,-79,-103,99
241,1147,4,8,5,-90,-210,-167,-287,180
3,1674,-30,95,92,53,-241,-252,-506,94
-259,2309,-93,77,125,350,231,-192,-620,-188
-260,3115,-90,-23,57,494,768,-34,-434,-202
0,4172,-45,-74,-44,306,682,-1,-145,113
215,5165,-27,-79,-80,96,401,-59,-134,316
237,5798,-37,-81,-99,-27,171,-109,-177,193
139,5940,-98,-126,-127,-122,-28,-155,-195,42
-25,5729,-129,-134,-113,-107,-47,-71,0,-84
-19,5217,-67,-45,-49,-39,-4,89,165,-202
-26,4362,1,0,-4,-15,-29,248,360,-183
-270,3373,88,75,91,46,4,361,394,-363
-301,2425,133,137,150,89,50,335,252,-464
-32,1554,93,86,106,21,-15,252,288,-226
281,740,2,-19,14,-127,-171,110,350,160
424,54,-91,-120,-35,-260,-312,7,435,501
415,-575,-68,-56,53,-262,-374,-94,300,680
166,-1119,-2,42,178,-189,-337,-127,155,674
-375,-1442,-1,69,229,-114,-351,-113,-10,233
-502,-1489,2,48,197,-78,-394,-99,-94,-64
-208,-1283,-17,-20,39,-53,-274,-38,1,302
-59,-888,56,41,-38,58,31,11,-62,164
-80,-564,205,165,28,167,121,-85,-460,-749
-171,-593,248,170,27,222,103,-168,-694,-1032
-284,-965,117,59,-1,212,101,-163,-592,-524
-149,-1434,46,24,27,226,228,-183,-621,-270
33,-2105,106,92,100,188,294,-162,-630,-173
-98,-2996,103,108,145,170,304,-35,-544,59
-185,-3651,9,13,66,172,402,-157,-798,126
-57,-3965,-51,-57,-39,13,192,-329,-936,117
9,-4121,-111,-133,-159,-176,-53,-165,-278,90
-4,-4085,-210,-258,-289,-292,-149,198,887,191
-45,-3713,-131,-183,-199,-147,-60,385,1268,64
126,-2947,-33,-84,-97,-49,14,473,1292,22
400,-1895,-24,-79,-84,-69,-27,381,1055,170
492,-762,-76,-107,-103,-84,-76,230,719,399
544,370,-176,-146,-160,-169,-207,51,508,680
554,1530,-182,-186,-214,-239,-318,-90,455,777
582,2633,-125,-168,-202,-249,-372,-196,356,661
504,3421,74,29,-27,-116,-297,-253,19,30
152,3513,154,123,107,-9,-172,-123,-11,-138
-291,3175,20,70,111,-43,-166,57,206,71
-414,2646,10,91,134,-64,-229,59,147,-7
-581,1837,88,163,182,-62,-317,-43,-58,-218
-760,999,188,267,275,-43,-365,-128,-345,-685
-622,214,182,275,298,-4,-307,-147,-523,-972
-430,-514,2,174,193,12,-302,-153,-407,-654
-238,-1099,-61,93,98,65,-230,-186,-275,-310
-139,-1441,-41,71,45,149,58,-107,-222,-288
-35,-1614,63,73,13,101,128,18,-143,-210
-11,-1709,62,46,-12,1,38,28,-147,-152
-90,-1614,-8,-42,-50,140,462,50,-269,-216
-174,-1419,-9,-54,2,439,966,128,-415,-225
-85,-1009,17,-34,52,394,823,119,-507,22
44,-341,-17,-64,14,210,548,57,-565,340
121,260,-19,-61,-8,85,268,-88,-611,424
205,533,23,-16,3,42,64,-219,-631,437
237,425,8,-9,14,13,-32,-189,-346,538
264,166,44,21,33,-20,-113,-119,44,480
258,-329,105,89,82,-29,-105,-42,121,154
231,-944,62,63,26,-122,-128,69,391,-51
-73,-1544,0,21,11,-47,-28,195,691,-277
-205,-1928,-10,25,67,67,41,133,372,-436
-2,-2075,14,37,83,27,-89,21,144,-324
8,-2197,-75,34,115,5,-197,76,301,-239
10,-2039,-102,13,140,15,-144,72,287,-138
-29,-1683,-57,-28,105,32,71,53,208,-32
-74,-1204,-64,-65,41,-17,55,37,261,6
-88,-536,-45,-49,-6,-103,-121,4,267,-7
-35,134,-87,-69,-89,-174,-264,39,364,94
234,875,-173,-131,-178,-228,-358,-34,306,296
356,1611,-201,-216,-276,-238,-226,-75,235,429
388,2078,-194,-248,-319,-237,-146,-68,205,534
461,2067,-73,-158,-223,-201,-232,-49,214,718
457,1659,7,-113,-155,-149,-277,-21,291,938
243,977,-44,-141,-157,-83,-178,52,388,747
59,48,-1,-26,-38,74,-21,107,155,44
116,-571,31,76,53,198,307,103,-147,-295
-3,-1072,-45,33,-25,104,376,56,-113,-30
-322,-1834,-50,91,2,69,376,103,-21,-64
-463,-2349,70,193,131,198,509,179,-199,-559
-324,-2459,193,219,170,217,397,36,-517,-590
-216,-2244,244,209,180,229,347,-110,-786,-436
-252,-1960,221,212,214,290,349,-180,-993,-362
-177,-1401,216,208,222,289,282,-248,-1078,-217
5,-560,182,142,132,156,138,-192,-816,-27
196,376,148,68,31,11,0,-49,-261,110
250,1461,100,42,-3,-8,0,75,147,79
163,2382,25,-12,-42,-27,-18,298,618,43
6,3153,6,-45,-63,-83,-112,344,846,18
-76,3614,-5,-9,-21,-87,-106,205,611,-10
71,3764,-19,-52,-56,-155,-194,56,481,193
102,3600,-42,-102,-97,-220,-320,-36,435,237
-53,3078,-29,-63,-45,-187,-303,-7,340,42
-121,2517,-39,-54,-26,-250,-426,-3,307,3
-248,1985,-57,-57,-19,-272,-475,-82,143,-90
-166,1506,-89,-67,-26,-237,-371,-180,-104,-49
67,1022,-60,-21,26,-271,-439,-245,-223,79
104,705,-103,76,138,-325,-622,-203,-41,141
-71,623,-132,87,181,-251,-594,-70,127,-4
-127,806,-177,-52,94,-53,-254,99,182,-132
105,1396,-280,-213,-48,97,73,242,169,213
377,2123,-326,-321,-234,77,181,232,151,614
341,2783,-237,-247,-262,122,342,197,137,669
66,3443,20,26,-105,152,413,243,234,371
-15,4074,271,168,-65,87,266,188,275,-97
165,4391,256,92,-125,27,67,-25,17,-317
-17,4137,180,80,-15,208,279,-123,-259,-461
-131,3673,233,121,91,339,469,-110,-382,-535
-311,2876,108,50,51,317,522,-5,-325,-293
-339,1913,-75,-93,-70,144,412,-11,-270,213
-17,1070,-67,-69,-74,2,183,-140,-440,471
2,282,-109,-30,-38,-5,94,-241,-632,390
-289,-468,-129,1,44,81,140,-181,-599,-31
-289,-890,49,58,104,66,63,-28,-259,-386
-104,-896,154,75,118,-4,-30,48,76,-435
66,-562,117,34,38,-174,-193,70,263,-270
160,81,34,-9,-51,-352,-403,68,264,-100
276,932,2,-40,-84,-423,-578,-15,187,107
247,1729,-106,-59,-66,-283,-546,-25,226,182
118,2496,-191,-99,-82,-85,-335,157,584,282
130,3300,-79,-95,-56,86,36,253,691,510
231,3856,13,-53,-40,147,179,114,398,438
246,3859,31,-44,-47,48,-62,-61,190,242
144,3421,-15,-56,-61,-63,-275,-123,167,258
-11,2541,-44,-50,-39,-70,-61,11,151,-118
62,1226,80,24,19,-84,49,86,50,-275
58,18,52,-36,-71,-287,-146,-26,184,626
-372,-1047,45,6,-30,-264,-98,-40,134,545
-700,-1835,121,144,130,-13,61,66,-159,-392
-612,-2275,74,88,124,178,178,-8,-446,-757
-290,-2354,-106,-120,-56,242,266,-81,-334,-482
145,-2101,-138,-153,-130,377,557,-19,-159,-105
331,-1750,19,6,-8,421,657,71,-107,-3
118,-1325,193,174,182,365,568,136,-81,32
-92,-780,263,265,291,349,513,222,-13,145
-78,-117,199,207,231,258,363,194,-28,-14
74,677,166,178,177,138,219,93,-160,-269
194,1442,156,158,124,-1,7,-64,-300,-239
274,1913,91,81,32,-144,-237,-210,-346,-33
121,1506,-67,-47,-65,-173,-280,-213,-285,298
-192,-1398,-116,-97,-100,-121,-174,-228,-463,73
-302,-5021,41,45,16,-1,-50,-255,-804,-477
-239,-5735,110,115,105,66,-33,-216,-685,-431
-135,-5655,58,54,62,36,-64,-111,-289,-272
-120,-5493,-37,-52,-48,46,49,31,29,-217
-210,-5300,-100,-124,-119,59,231,173,342,-190
-197,-4991,-119,-156,-169,-14,145,311,695,-68
-107,-4528,-81,-108,-137,-74,29,227,526,52
82,-3862,1,-27,-74,-78,-4,73,294,121
269,-3138,37,22,-27,-49,-22,29,280,60
464,-2219,55,41,-2,-38,-45,8,191,22
391,-1417,-37,-57,-82,-113,-141,-21,163,29
184,-608,-97,-122,-136,-192,-240,-10,249,85
181,320,-24,-73,-94,-220,-341,-15,260,202
121,1044,19,-9,-33,-267,-461,13,349,346
251,1376,-55,-53,-61,-399,-607,12,558,762
522,1369,-94,-52,-43,-497,-726,-135,396,804
543,1015,-14,28,38,-512,-814,-264,137,554
284,58,34,77,117,-347,-567,-72,179,602
-61,-1055,-83,-16,89,-151,-191,121,226,253
-227,-1927,-144,-133,5,111,21,13,-87,-271
-571,-2761,-135,-173,-45,487,460,-132,-476,-773
-739,-3418,-96,-122,-68,646,898,-108,-609,-1004
-447,-3670,84,47,-33,476,888,-61,-606,-689
-248,-3587,314,270,97,369,749,-68,-717,-421
-348,-3333,322,310,202,327,594,-177,-978,-304
-353,-2790,153,160,135,177,337,-259,-1014,-18
-203,-2034,30,36,51,24,87,-245,-745,312
-29,-1249,-19,-10,14,-8,28,-125,-373,367
186,-304,-94,-85,-66,-40,24,90,219,389
336,697,-57,-83,-95,-69,-82,190,682,364
364,1466,54,-10,-42,-30,-148,66,570,83
-25,1636,58,57,53,60,-58,95,365,-308
-410,1431,-74,58,101,103,66,224,231,-582
-185,1194,-155,22,30,-19,16,234,327,-400
122,769,-7,16,-9,-145,-179,177,442,-113
233,220,83,42,10,-230,-411,100,378,54
223,-287,75,33,11,-316,-655,27,289,-10
190,-800,32,-6,-16,-362,-773,-25,292,0
34,-1265,-19,-16,33,-213,-457,12,257,-43
23,-1451,-70,-53,26,-171,-335,29,263,101
22,-1359,-78,-79,-14,-196,-401,-8,302,211
-170,-1209,-132,-112,-27,62,26,-70,47,-58
-240,-832,-178,-151,-51,424,795,25,-132,-242
-106,-305,-125,-101,-59,391,811,126,-97,-97
63,206,-69,-70,-64,152,377,66,-57,118
264,785,-131,-92,-108,-81,70,40,55,405
228,1203,-76,-68,-111,-205,-100,82,223,596
-65,1236,-67,-37,-80,-171,-155,81,211,452
-71,964,-59,-37,-49,-49,-117,-49,-8,127
22,478,54,51,56,260,326,-83,-298,-116
131,-221,109,97,87,442,654,-154,-643,-88
404,-1036,183,132,96,364,489,-300,-930,114
396,-1928,189,173,123,230,333,-223,-851,99
416,-2643,75,70,22,20,145,-175,-530,120
398,-3173,-48,-130,-179,-257,-93,-17,254,461
95,-3581,-90,-159,-199,-303,-161,203,887,362
-295,-3677,59,45,47,-40,17,234,698,-403
-474,-3455,122,158,194,129,145,262,442,-721
-385,-2785,31,134,190,116,74,126,139,-674
-184,-1791,-56,75,130,53,-33,22,9,-468
-29,-734,15,47,86,8,-78,0,13,-250
-144,396,-24,1,35,5,-67,-57,-96,-141
-396,1574,-140,-84,-38,-7,-51,-110,-190,-97
-257,2684,-116,-80,-45,-36,-105,-159,-256,-122
22,3326,-79,3,24,-14,-134,-180,-337,-321
174,3472,36,27,41,-19,-165,-97,-266,-265
143,3289,46,15,24,-46,-206,93,34,-75
-78,2686,13,36,50,-30,-185,170,166,-6
-281,2006,-26,34,41,-25,-168,136,200,-10
-168,1485,1,18,20,-93,-225,79,222,41
62,1068,-28,15,3,-206,-355,-5,241,266
228,717,18,6,-44,-306,-457,-56,355,614
315,583,42,0,-92,-318,-465,-50,386,846
29,602,-82,-110,-194,-256,-310,-47,286,631
-322,704,-205,-151,-164,-18,112,68,117,40
-73,1109,-51,-46,-26,154,209,158,-17,-255
163,1603,42,16,63,135,137,77,-147,-90
125,2090,25,28,124,105,277,52,-156,33
-121,2695,17,-3,149,129,343,-15,-276,-367
-395,3141,-32,-26,170,155,208,-123,-418,-710
-271,3385,-24,-18,151,186,165,-150,-465,-529
-92,3301,29,9,21,92,68,-230,-577,-119
41,2969,69,34,-77,-12,-70,-339,-797,273
311,2573,129,68,-119,-112,-191,-355,-860,423
531,1710,198,65,-130,-128,-313,-340,-778,236
431,717,144,14,-111,-55,-327,-251,-391,-8
95,-254,-3,-92,-141,-43,-281,85,455,29
-27,-1010,31,-53,-77,9,-208,283,882,24
-130,-1563,122,40,13,171,92,287,643,-128
-219,-1780,136,65,36,314,489,342,480,-215
-203,-1700,113,46,33,331,730,368,427,-217
-10,-1414,68,1,-5,227,618,339,472,-17
178,-940,51,-26,-17,91,346,224,354,123
99,-571,5,-38,-15,31,182,163,209,141
-78,-173,-51,-57,-27,-17,68,142,199,141
-71,578,-103,-102,-68,-93,-93,63,225,256
117,1340,-61,-88,-79,-147,-223,-70,135,303
283,1732,-23,-68,-81,-229,-362,-176,40,340
229,1606,-72,-97,-105,-301,-449,-142,127,380
362,1256,-71,-104,-132,-356,-557,-101,231,574
790,698,-45,-103,-180,-419,-734,-157,206,988
825,-139,-8,-52,-120,-352,-644,-158,128,917
485,-947,19,-19,-15,-243,-298,-44,57,235
-387,-2178,-38,-6,20,-197,-180,-51,-29,-350
-572,-2548,14,48,60,-1,78,-200,-317,-399
-736,-2552,115,149,220,367,446,-186,-582,-635
-772,-2233,132,180,290,584,489,-73,-521,-462
-726,-1809,132,204,305,704,585,5,-484,-480
-613,-1287,108,179,269,715,772,-30,-664,-593
-488,-507,78,132,202,513,659,-116,-831,-594
-201,502,73,93,114,281,407,-183,-895,-548
114,1611,29,15,-23,39,127,-300,-952,-544
370,2451,-71,-103,-160,-150,-92,-188,-530,-322
486,2597,-82,-119,-153,-147,-156,-39,-107,26
395,2298,-57,-69,-88,-69,-117,-57,-76,103
143,1799,-59,-57,-65,-16,20,115,274,67
-307,956,-49,-37,-23,12,121,411,979,66
-584,149,9,22,47,17,145,525,1216,150
-363,-255,4,5,22,-19,121,400,958,240
113,-487,-59,-73,-61,-105,36,305,783,329
362,-755,-64,-86,-84,-172,-95,158,453,193
224,-911,-145,-62,-55,-159,-77,49,178,-17
-25,-921,-263,-131,-79,-143,-84,82,210,3
-17,-922,-270,-176,-98,-170,-171,103,315,219
189,-645,-99,-99,-38,-154,-234,40,247,231
289,-201,102,25,73,-72,-220,-33,36,67
303,245,109,64,95,-78,-249,-97,-35,137
222,826,65,44,46,-172,-335,-191,-64,274
-77,1377,93,133,51,-182,-281,-225,-211,30
-329,1573,187,257,129,-86,-245,-246,-380,-251
-342,1368,213,254,184,37,-199,-274,-448,-216
-353,934,139,152,140,103,20,-197,-363,-101
-326,211,88,74,99,114,129,-134,-297,-153
-248,-669,18,-21,47,128,151,-118,-380,-150
-144,-1457,-80,-100,6,156,252,-44,-406,-174
52,-2051,-68,-78,7,129,218,-8,-354,-238
212,-2478,8,-32,33,99,213,4,-331,-120
206,-2764,3,-46,0,58,264,91,-70,145
81,-2768,-36,-48,-4,-32,150,100,131,198
-21,-2559,-40,54,113,-44,33,47,130,-44
-31,-2155,-32,57,133,-87,-108,46,218,-96
60,-1479,-33,-17,58,-162,-226,31,227,-66
195,-736,-102,-123,-37,-237,-326,-39,190,1
211,49,-118,-203,-150,-258,-385,-8,311,111
94,908,-85,-164,-172,-203,-349,71,472,112
-95,1594,-103,-75,-116,-78,-244,-27,247,56
-161,1900,-12,7,-84,61,-65,-73,-52,72
-84,1866,-12,-76,-156,57,209,-56,-144,134
69,1578,-103,-153,-188,7,279,-6,-29,230
108,823,-55,-104,-112,74,193,86,139,161
123,-45,-25,-87,-61,197,263,117,200,133
286,-682,36,-64,-69,135,239,136,322,400
400,-1219,135,11,-88,-21,124,186,446,514
379,-1731,129,2,-93,-125,30,140,314,377
392,-2059,64,-46,-81,-159,-122,1,106,317
295,-2135,84,10,4,-66,-130,-52,-91,2
136,-2033,114,71,44,-58,-207,-193,-287,-284
289,-1682,-30,-80,-106,-303,-516,-218,-10,307
476,-1198,-142,-184,-192,-410,-629,-157,170,794
720,-624,4,-99,-139,-322,-456,-230,-87,729
377,-148,47,-30,-59,-229,-378,-255,-201,397
-598,83,-37,17,51,-57,-335,-207,-184,-168
-1059,262,-66,55,101,142,-92,-201,-296,-694
-789,225,4,91,138,265,233,-140,-368,-864
-548,-157,78,175,230,394,552,-15,-452,-1103
-403,-874,136,255,276,402,548,59,-444,-1082
-282,-1964,216,263,275,306,462,109,-326,-694
-283,-3072,175,245,268,335,468,149,-179,-324
-223,-3916,109,175,194,363,439,81,-185,-49
-182,-4628,101,94,94,307,336,30,-204,50
-293,-5359,47,26,31,299,309,78,-104,-82
-286,-5741,0,-1,11,278,406,65,-133,-209
-63,-5621,0,3,2,113,336,89,-54,-141
157,-5183,38,34,21,-16,178,118,-49,8
140,-4452,11,42,39,-29,80,16,-421,46
-18,-3649,-139,-61,-37,-94,-74,-26,-422,102
30,-2677,-196,-163,-147,-201,-225,-48,60,219
88,-1492,-168,-164,-147,-219,-228,-68,368,331
5,-409,-146,-120,-113,-184,-170,93,546,370
76,349,-33,-42,-53,-138,-140,258,622,180
122,675,31,15,4,-92,-155,212,463,-52
4,780,5,32,42,20,-46,195,430,-172
-59,516,-40,15,48,107,122,180,358,-279
20,60,-149,-30,9,78,148,74,209,-194
91,-366,-145,-63,-17,17,21,-31,103,-6
116,-811,-95,-61,-8,-47,-69,2,173,207
51,-1106,-103,-2,33,-66,-120,55,132,93
10,-1277,-77,39,43,-76,-193,13,5,-104
41,-1167,-44,52,6,-104,-282,-49,-38,-146
-5,-875,91,115,19,-85,-265,13,97,-28
-197,-422,126,125,30,-16,-94,44,76,-74
-153,274,33,19,-28,57,305,29,-37,-156
172,1079,-76,-96,-136,-53,237,21,66,211
424,2006,-160,-117,-179,-189,-73,-39,107,538
487,2863,-58,-39,-84,-175,-192,-73,106,652
338,3465,33,15,-22,-109,-201,-91,44,591
26,3601,66,41,12,-49,-164,-136,-141,151
-242,3402,93,83,61,-61,-222,-223,-326,-347
-329,2968,89,153,95,-67,-177,-305,-417,-344
-260,2153,71,167,113,32,-4,-261,-368,-96
-86,1261,94,152,127,62,14,-172,-268,215
87,507,178,162,156,58,-42,-157,-318,257
90,-215,229,135,125,98,-13,-118,-361,13
-103,-900,105,10,-2,89,8,-76,-228,-129
-150,-1268,-24,-80,-107,-57,-183,-18,132,-71
-20,-1232,31,-50,-175,-174,-324,44,223,0
14,-1045,116,0,-132,-154,-212,32,-39,-21
-164,-724,56,-33,-82,18,174,64,-200,22
-370,-319,-63,-106,-108,178,331,83,-254,29
-319,274,-157,-162,-148,225,260,-38,-345,-154
67,1141,-262,-201,-193,140,204,-69,-247,-110
236,1936,-241,-184,-179,42,247,106,22,19
204,2490,-188,-167,-179,-101,160,227,284,-26
141,2591,-82,-76,-96,-108,19,244,410,-149
45,2349,63,66,41,-12,-22,199,314,-182
130,1902,71,51,14,-75,-180,62,294,34
423,1283,29,-8,-67,-136,-287,7,483,335
647,626,65,-16,-56,-68,-67,0,306,259
473,-35,26,-26,-36,32,203,28,67,37
263,-636,-18,-37,-45,20,298,91,107,44
-50,-1104,67,57,41,23,288,134,150,13
-235,-1177,140,153,153,49,198,100,45,140
-242,-891,163,185,155,-63,-107,-82,-145,108
-334,-509,86,122,89,-134,-229,-124,-220,-286
-437,46,0,28,27,-144,-188,-38,-98,-429
-302,712,23,36,50,-148,-296,-62,-35,-277
-29,1448,68,60,65,-104,-494,-116,104,-81
155,2190,48,49,61,103,-285,-130,84,-41
162,2745,-66,-14,6,196,-23,-142,-65,-56
21,2871,-56,-27,-2,131,5,-156,-186,-154
-12,2530,-34,-45,-30,42,95,-14,-12,20
47,1991,-125,-106,-115,25,233,148,244,326
55,1264,-168,-159,-179,12,223,26,78,249
-193,368,-172,-129,-125,142,395,-43,-210,-149
-243,-392,-71,-20,-1,254,554,12,-402,-345
84,-915,70,86,62,146,278,-71,-500,-225
412,-1261,88,95,41,-18,-5,-125,-420,6
502,-1470,1,28,-51,-166,-155,-1,-20,204
306,-1381,-26,-37,-119,-172,-215,46,203,184
-129,-1146,-3,-17,-60,1,-87,174,256,82
-448,-663,-7,3,-12,106,42,311,391,-46
-413,94,-31,-31,-45,75,178,219,281,-94
-364,861,-53,-15,-36,67,295,166,174,-134
-401,1869,-64,51,45,89,165,95,168,-320
-432,2956,-19,58,80,80,28,17,133,-294
-294,3805,-41,21,60,13,-57,-69,73,-180
-132,4101,-51,-4,30,7,-63,-78,21,-139
-196,3976,-94,-6,53,66,26,-33,-61,-220
-222,3636,-44,14,63,116,164,56,-43,-196
-61,3066,20,29,2,78,127,139,60,8
118,2463,60,62,-20,19,53,165,57,174
232,1832,97,89,-23,-53,-4,175,23,319
362,1285,100,45,-69,-116,-61,213,184,521
493,888,93,23,-94,-117,-150,188,191,547
545,682,71,32,-64,-140,-241,-7,-4,371
341,587,73,20,-46,-178,-311,-134,-10,318
-94,505,7,48,15,-136,-283,-117,-50,107
-145,861,24,98,86,-39,-216,-109,-232,-147
-92,1266,127,146,162,111,-29,-105,-347,-167
-103,1686,88,114,140,139,7,-125,-299,-19
-12,2266,5,10,39,75,-62,-114,-144,155
172,2785,-18,-62,-40,3,-78,-125,-146,133
339,2982,-21,-96,-104,-111,-193,-271,-339,240
213,2636,-18,-66,-76,-81,-173,-308,-469,238
-43,1976,-56,-55,-31,18,41,-132,-241,75
-300,984,-26,0,43,141,209,37,-10,-353
-303,-179,48,87,122,176,216,87,109,-560
-111,-1177,-54,47,85,68,70,72,192,-338
80,-1951,-67,12,43,-7,-37,7,153,-183
180,-2671,32,4,38,-51,-80,23,125,-82
230,-3259,19,20,72,-109,-190,21,172,125
192,-3520,-41,12,101,-147,-275,85,374,279
39,-3553,-62,-5,111,-71,-146,119,384,267
-110,-3395,-98,-48,114,104,195,181,324,192
-25,-2870,-55,-72,52,136,238,134,152,151
-38,-2230,8,-57,-39,73,119,112,86,31
-339,-1502,-1,-30,-110,-26,-44,142,164,-305
-436,-726,62,-4,-162,-123,-148,78,131,-551
-240,-51,85,-11,-197,-127,-12,65,12,-483
9,149,52,0,-141,-84,75,44,-10,-236
235,22,74,42,-73,-95,-34,12,56,38
298,-309,99,46,-53,-149,-232,-13,134,284
224,-950,93,20,-52,-175,-350,-85,147,438
131,-1700,93,-6,-41,-150,-346,-130,56,249
56,-2344,20,-41,-4,-81,-225,-100,0,21
-64,-2858,-70,-72,32,20,-24,-58,-52,-50
-205,-3244,-109,-85,26,80,288,-51,-259,-296
-248,-3378,-82,-45,64,158,591,33,-380,-406
-144,-3080,-84,-52,73,182,477,15,-346,-125
-60,-2527,-73,-75,22,143,308,-110,-377,70
-3,-1768,-11,-15,22,30,65,-72,-306,108
57,-932,38,36,44,-79,-200,138,-18,128
84,-21,108,60,44,-224,-504,106,-6,35
159,1021,104,26,-11,-311,-749,-140,-172,0
74,1919,-63,-104,-87,-155,-619,-271,-192,57
-200,2483,-167,-168,-91,135,-108,-211,-111,3
-363,2616,-135,-141,-48,290,229,-136,27,-158
-350,2451,-66,-94,-12,245,228,-144,54,-277
-178,2040,-51,-78,-36,190,383,-58,71,-195
112,1411,-13,-50,-37,104,440,81,165,38
398,848,12,-53,-58,40,365,165,238,280
497,211,7,-1,-64,8,175,122,156,213
547,-324,7,80,-51,46,70,58,43,173
463,-793,36,20,-76,149,130,59,122,270
388,-1052,-26,-95,-131,143,180,89,326,479
232,-999,48,-15,-57,58,148,78,249,365
-164,-828,190,138,78,29,201,129,10,-175
-338,-373,216,178,134,29,222,97,-236,-433
-349,217,104,125,105,26,176,-70,-460,-333
-284,882,32,102,111,25,67,-178,-584,-188
-197,1667,41,121,142,16,-24,-220,-621,42
-45,2412,39,130,150,-25,-141,-184,-512,254
-24,2753,68,104,125,-81,-282,-83,-172,261
-64,2617,66,57,57,-161,-417,-15,250,227
15,2237,31,20,19,-161,-415,56,452,106
134,1510,-50,-22,-5,-80,-357,59,405,30
147,628,-127,-58,-30,-61,-331,58,343,-22
163,-143,-38,-81,-66,-110,-269,62,282,-69
221,-810,-34,-121,-89,-34,49,153,272,-29
