45,2865,-12,-7,-6,-4,-75,-52,-22,-2
67,3320,-43,5,-12,-20,-80,-10,67,23
92,3374,-109,0,-12,-14,-67,27,95,67
115,3143,-134,18,8,-19,-54,20,109,121
107,2502,-25,8,12,-26,-59,-1,80,141
68,1714,37,3,7,-26,-50,0,53,80
14,1035,32,-10,4,-24,-7,21,33,-6
-32,455,0,-26,-15,-7,28,14,15,-86
-55,1,-6,-8,-20,20,53,14,18,-85
-49,-163,54,23,-31,2,40,13,26,-26
-4,11,45,-3,-47,-36,3,-13,13,42
62,374,20,-42,-59,-63,-11,-42,-7,100
115,953,-46,-59,-82,-92,-41,-60,-41,141
81,1634,-55,-50,-68,-73,-38,-45,-18,109
-26,2311,-26,-31,-40,-40,-40,-55,-34,-1
-140,3146,-33,-25,0,1,-44,-74,-93,-95
-233,3921,-1,23,70,83,20,-15,-79,-99
-292,4345,4,61,109,141,68,39,-13,-124
-283,4287,51,83,110,144,84,51,-33,-201
-138,3988,65,54,67,87,46,27,-41,-220
-16,3413,43,14,25,36,10,-1,-48,-153
22,2485,-31,-4,6,22,11,15,2,-52
76,1559,-147,-31,-32,-10,0,15,40,43
143,712,-131,-31,-51,-54,-30,-2,6,102
181,-51,-13,-16,-35,-63,-49,16,59,114
221,-678,70,10,-20,-81,-79,0,90,118
179,-980,56,27,-24,-66,-53,-38,26,78
90,-973,22,8,-33,-42,-12,-51,-10,73
34,-753,30,-16,-35,0,0,-55,14,121
25,-237,15,-25,-23,49,27,-53,34,106
-9,349,33,-11,4,74,67,-60,27,0
-23,1014,45,3,18,60,98,-42,-3,-38
-27,1822,63,23,15,9,91,-15,-51,-36
-69,2536,59,32,6,-20,60,-34,-85,-88
-106,2860,33,25,-2,-3,41,-43,-101,-148
-93,2798,34,18,-1,21,40,-16,-63,-148
-60,2546,36,20,4,17,9,-6,-8,-71
-10,1953,33,21,6,-11,-18,-29,-51,-16
-10,1170,24,31,12,-11,-6,-32,-73,-13
-14,463,8,26,8,-10,24,-2,10,5
38,-88,-4,3,-7,-26,49,34,79,63
78,-558,17,9,-27,-39,32,34,51,97
83,-918,-2,-19,-57,-72,-2,28,51,77
50,-892,-24,-49,-74,-88,-11,38,77,18
9,-594,8,-18,-30,-60,0,36,87,-44
-10,-89,25,26,7,-18,27,41,134,-67
-25,624,9,11,7,11,47,78,136,-33
-22,1319,-20,-26,-5,17,12,58,66,2
-33,2008,-62,-62,-29,-4,-12,3,-56,27
-59,2773,-64,-64,-41,-14,-33,-55,-184,-42
-108,3390,-66,-46,5,4,-34,-105,-317,-147
-140,3438,-120,-10,59,13,-15,-123,-365,-189
-113,3089,-100,24,63,-16,-31,-113,-301,-166
-103,2438,-64,63,63,-44,-52,-114,-221,-144
-79,1401,-61,38,43,-43,-38,-72,-91,-113
-28,381,-61,-37,-8,-23,26,34,96,-53
48,-498,-35,-61,-78,-17,36,89,149,-1
90,-1293,4,-25,-112,-53,-12,74,195,47
76,-2011,48,14,-166,-99,-32,87,324,71
113,-2514,57,-26,-197,-110,-26,159,461,79
132,-2736,76,-25,-109,-57,-2,166,403,-11
109,-2829,98,34,-25,-3,11,112,237,-84
117,-2354,52,34,-20,-7,-21,63,128,-6
159,-1456,3,25,-23,-35,-74,46,109,97
197,-814,5,78,10,-50,-81,23,85,200
226,-217,-26,122,63,-72,-114,-25,70,383
211,333,-78,174,134,-62,-153,-66,71,511
126,582,-8,213,145,-10,-159,-73,76,496
-1,446,25,163,125,15,-150,-83,46,279
-64,68,-94,61,101,48,-100,-75,0,-11
-94,-659,-99,0,54,55,-44,-41,-35,-145
-212,-1680,-18,-57,-56,42,2,-27,-68,-220
-228,-2815,-59,-151,-164,2,10,-20,-124,-152
0,-3330,-85,-119,-143,-31,6,-13,-138,38
224,-3209,-35,-112,-163,-10,108,17,-117,224
161,-3485,10,-182,-158,57,238,65,-118,178
-145,-3525,49,-163,-81,101,273,35,-186,-269
-375,-3388,11,-130,-7,127,263,-22,-235,-547
-403,-2845,-6,-79,20,150,260,-9,-210,-541
-323,-2075,77,58,84,166,270,35,-207,-499
-236,-1690,140,194,146,118,181,14,-193,-417
-138,-1000,178,190,99,59,114,28,-71,-289
-74,12,170,146,49,41,61,50,4,-271
-59,1083,149,108,51,59,12,65,50,-266
-83,1715,125,79,55,65,23,125,239,-272
-73,2248,94,55,35,31,-3,117,218,-239
-57,4128,27,9,-10,-9,-51,44,78,-146
-9,5044,-106,-6,-15,-22,-45,8,16,-37
-4,3962,-107,-17,2,-6,-11,-3,3,25
8,2886,-28,-28,8,-9,5,0,-29,76
42,2120,-28,-10,10,5,29,24,-14,160
72,1427,-51,-3,16,17,48,12,-22,166
94,1315,-37,0,14,0,26,-19,-35,127
98,1975,-14,-7,5,-21,19,-16,33,113
151,2825,12,-25,9,-40,-6,-4,38,73
121,3716,42,0,9,-37,-40,-2,111,89
45,3440,36,14,28,-14,-25,19,134,81
-49,2703,42,35,53,15,-20,10,60,33
-106,2535,40,44,47,16,-23,-21,25,-22
-43,2892,31,13,-1,-39,-58,-53,25,14
-1,2830,14,-31,-58,-93,-77,-46,59,81
8,1806,7,-64,-88,-104,-85,-19,106,98
16,835,0,-41,-57,-76,-99,-39,31,69
7,677,-104,-17,0,2,-64,-71,-21,31
47,1563,-197,-24,52,54,-38,-83,-40,38
107,2171,-109,-15,59,45,-56,-84,-71,79
159,918,-105,-13,45,19,-53,-69,-52,155
211,-1312,-107,-14,24,-11,-42,-43,-59,221
161,-2847,13,-2,20,-1,-33,-29,-29,214
90,-3246,76,11,48,40,-14,-2,8,200
70,-3134,107,67,102,96,50,34,2,160
60,-2500,107,89,132,117,87,32,-51,97
47,-1670,84,73,101,87,61,-13,-75,6
-11,-1107,56,29,37,45,1,-15,11,-52
-153,517,0,-8,16,28,-26,-22,17,-110
-218,2519,-84,12,38,26,-43,-92,-104,-160
-152,3771,-2,50,58,42,-46,-115,-166,-116
-81,3564,83,60,48,31,-58,-93,-117,-75
-34,3014,42,43,24,15,-63,-60,-41,-4
-51,2669,63,5,8,1,-54,-26,-21,57
-52,2005,58,-11,-16,-14,-45,-23,-26,99
-39,1246,39,-22,-47,-29,-69,-34,-77,123
-3,553,21,-38,-36,-24,-59,-41,-116,119
24,156,21,-27,0,4,-45,-44,-132,64
24,124,3,-31,-20,-17,-40,6,55,25
62,429,18,-23,-14,-30,-2,55,278,17
71,1002,28,12,13,6,47,81,305,-15
44,1933,-3,0,15,17,32,92,277,-45
44,2656,34,-1,22,16,12,50,173,-26
78,4028,-6,7,25,30,11,-49,-61,110
81,5180,-74,-11,6,11,-15,-128,-289,225
69,5275,-86,-41,-28,-30,-36,-180,-396,186
28,5126,-73,-66,-69,-72,-56,-219,-447,96
-34,4892,-132,-71,-101,-108,-84,-238,-450,-23
-68,4625,-156,-49,-101,-120,-116,-196,-235,-120
-126,4276,-113,-35,-56,-70,-101,-21,209,-169
-147,3755,-19,3,27,37,-29,207,501,-145
-104,2889,-4,10,41,56,4,323,631,-77
-39,1008,79,33,56,36,9,234,532,-31
13,-1341,115,34,70,41,33,83,309,-24
39,-3246,103,2,57,37,60,33,205,0
55,-4200,92,-28,32,18,64,40,141,19
41,-4217,76,-39,12,-1,73,64,119,23
59,-3301,73,-28,7,3,62,67,88,43
62,-1940,57,-25,8,5,41,41,54,66
70,-908,0,-34,-11,-11,15,15,32,93
60,59,-61,-59,-35,-33,-34,10,54,108
55,1058,-21,-55,-23,-40,-70,-12,6,86
147,1905,8,-35,-18,-49,-96,-52,-4,80
260,2204,20,-37,-24,-41,-84,-70,-19,87
239,2222,4,-66,-38,-33,-56,-50,-25,102
138,2331,-31,-54,-36,-17,-54,-9,-19,100
34,3232,-4,-22,-29,-11,-54,10,4,119
1,3189,3,-30,-53,-24,-47,12,27,166
11,2115,-6,-23,-71,-49,-44,8,42,185
3,1086,0,-24,-79,-79,-57,-4,-4,178
21,79,8,-35,-67,-113,-89,-59,-107,192
-7,-640,21,-13,-28,-78,-72,-74,-203,154
-75,-968,27,3,3,-23,-16,-59,-210,58
-104,-1117,27,3,20,19,32,-33,-148,-46
-122,-1128,32,3,18,74,42,-27,-75,-147
-124,-616,20,19,40,126,66,-13,8,-221
-102,79,-25,49,76,152,118,48,111,-259
-38,850,57,59,87,121,140,72,52,-195
-36,2554,59,24,99,32,100,23,-38,-111
-124,3651,-18,6,111,-22,25,-46,-73,-81
-176,3544,-72,-22,95,-39,-26,-86,-104,-67
-95,3328,-139,-71,58,-44,-76,-82,-90,-4
25,3125,-157,-128,-10,-82,-91,-80,-36,147
154,2929,-125,-77,-82,-138,-112,-93,-9,357
199,2716,-1,23,-123,-162,-135,-108,-11,490
131,2470,47,92,-98,-119,-94,-57,11,484
60,2142,106,141,-87,-70,-24,24,64,298
-30,1835,108,165,5,0,61,85,66,26
-194,1648,21,123,75,77,119,124,38,-211
-284,1809,-21,93,77,89,96,85,25,-339
-184,1826,44,105,66,62,57,31,4,-350
-106,1777,37,79,69,38,25,15,-36,-348
-23,1735,-47,-21,33,31,28,8,-87,-226
103,1670,-1,-56,18,12,29,-20,-93,-184
221,1591,75,-37,0,-23,-9,-31,-119,-174
261,1499,94,-41,-29,-61,-91,0,-72,-40
168,1421,66,18,-11,-104,-170,-8,-8,80
36,1324,-4,71,-29,-134,-201,-71,-17,186
-91,1238,-88,29,-67,-140,-155,-108,-5,352
-174,1132,-55,-1,-3,-100,-109,-76,-29,295
-18,970,1,-61,9,-98,-122,-66,-65,153
35,669,-75,-139,-66,-54,-36,-49,-22,28
-37,183,-153,-137,-73,86,117,18,-28,-220
-36,-365,-61,-76,-24,169,130,54,-82,-371
-20,-955,38,3,12,148,136,83,-63,-242
25,-1438,117,126,49,102,188,111,8,-75
70,-1742,194,241,122,85,175,107,9,-35
81,-1664,245,325,230,99,78,86,8,21
20,-1473,110,278,217,124,170,144,75,100
-50,-925,0,169,118,158,326,216,146,60
-149,-245,-70,85,56,145,208,144,106,-47
-300,118,-261,-49,-5,106,78,31,-40,-205
-263,431,-222,-92,-64,93,99,-6,-91,-242
-135,825,-147,-114,-10,108,164,21,-82,-173
-31,1218,-28,-156,-31,55,156,38,-56,-91
-25,969,150,-155,-149,-40,115,19,-46,-58
-75,277,126,-176,-196,-104,54,3,-8,-31
-51,-833,66,-143,-186,-95,23,21,35,-6
50,-2325,78,-106,-153,-83,16,57,71,73
157,-3846,90,-78,-118,-82,10,60,92,195
62,-7139,15,-98,-92,-63,4,-13,-2,161
123,-8254,-32,-107,-35,-24,38,3,-38,17
178,-8853,-31,-137,-20,0,61,26,-23,-127
152,-9187,-1,-105,0,20,71,46,4,-204
178,-9661,-29,-30,43,48,78,58,27,-165
84,-10426,-74,2,55,62,87,64,24,-119
-191,-10367,-99,-9,20,40,71,40,-6,-157
-320,-10158,-102,-31,-6,15,23,-7,-31,-207
-196,-9902,-71,-30,-10,8,14,-27,-55,-178
-117,-9718,-29,-61,-25,-20,2,-58,-67,-68
-99,-10123,-17,-62,-24,-25,-11,-97,-121,-2
-57,-10839,28,-21,8,-10,5,-111,-124,17
-40,-11518,59,1,22,-17,41,-95,-82,44
-51,-11497,45,2,14,-15,54,-32,36,46
-29,-10877,52,-6,19,-20,23,16,82,34
-8,-10220,53,-10,10,-33,6,56,156,35
31,-9603,9,-31,-24,-51,-17,54,175,61
75,-9025,-4,-41,-39,-67,-40,2,63,104
98,-8506,8,-30,-25,-46,-30,-13,61,97
81,-7978,22,-4,10,-18,-19,10,139,62
62,-7487,23,2,39,-3,-2,23,162,49
66,-7012,25,6,46,13,8,12,134,28
67,-6483,41,30,58,27,34,-9,93,-70
59,-5609,50,50,61,36,50,-30,44,-164
56,-4385,37,28,41,19,14,-44,8,-124
19,-2922,32,12,7,-4,-23,-54,-11,-83
15,-706,3,11,-15,-5,-60,-63,-15,-59
58,1004,-24,31,-3,17,-52,-37,-13,-33
102,617,-23,30,-3,18,-58,-31,-34,-3
185,-500,39,31,0,6,-51,-71,-82,37
219,-1689,52,36,21,16,-30,-106,-190,59
138,-2289,48,36,34,29,-12,-155,-338,22
24,-2524,28,15,21,16,-1,-209,-498,-1
25,-3331,40,23,31,22,25,-216,-544,50
7,-4187,46,11,21,10,-6,-231,-524,67
-58,-4387,5,-13,-31,-42,-60,-161,-291,57
-71,-4146,-48,-62,-93,-107,-92,58,195,80
-39,-3924,-70,-65,-93,-104,-78,235,679,97
6,-3581,-32,-7,-32,-49,-43,187,668,55
51,-2714,15,22,14,-20,-34,84,419,40
26,-1643,1,14,41,0,-14,45,270,46
-89,-540,19,28,52,41,8,54,161,-21
-127,522,31,35,42,41,0,33,86,-38
-90,368,9,0,4,17,-40,-3,42,-24
-65,-26,-18,-43,-33,-27,-82,-1,99,-27
-25,-185,-20,-49,-15,-55,-85,25,169,-24
70,-228,-18,-5,62,-50,-72,20,151,14
222,180,-27,18,102,-40,-99,5,93,75
273,-389,-40,-18,100,-29,-99,-10,66,121
278,-1192,-49,-87,59,-7,-42,22,99,216
305,-1899,-66,-157,-41,8,2,59,124,307
249,-2210,-48,-121,-96,-19,-8,68,147,293
121,-2084,29,25,-92,-45,-31,60,155,222
-10,-1675,81,75,-134,-70,-43,21,92,138
-153,1133,25,18,-105,-47,-44,-1,19,51
-315,9348,1,19,-22,24,0,28,-9,-107
-296,11332,-1,27,13,66,36,52,-10,-143
-104,8492,34,63,38,89,36,42,-36,-154
85,8605,133,110,32,71,26,23,-72,-174
163,8547,166,180,60,56,17,6,-82,-131
141,8200,90,144,47,41,0,-17,-68,52
68,7457,-10,54,1,12,-33,-42,-69,151
-55,6656,-51,31,13,10,-9,-18,-69,75
-88,5797,-48,69,89,17,0,-21,-74,69
-87,5556,-57,92,130,34,10,-16,-54,120
-168,5376,-2,82,115,37,18,-5,-57,59
-199,5276,-53,36,80,13,-40,-32,-97,5
-94,5153,-52,82,54,-8,-85,-81,-141,20
113,5359,23,125,-24,-19,-70,-82,-170,-31
199,5731,48,75,-51,-51,-73,-62,-160,-142
182,6199,63,155,48,-106,-118,-92,-169,-219
84,6974,107,215,75,-86,-102,-62,-132,-166
-283,7721,-62,50,82,-26,-71,17,16,54
-573,8388,-250,-62,82,-32,-84,6,64,192
-451,8839,-216,68,160,15,-55,0,15,244
-188,8937,-123,123,187,131,82,94,53,206
-35,8659,-68,103,178,153,103,118,58,5
-21,8169,-24,42,97,70,22,40,-9,-181
-46,7668,51,-84,5,106,57,58,-2,-214
-138,7139,103,-196,-91,171,158,127,9,-214
-44,6599,129,-228,-167,132,170,115,-15,-133
114,6311,114,-192,-181,62,128,65,-38,2
129,5990,68,-137,-144,33,83,47,-35,-19
23,5620,-32,-86,-92,48,74,66,-46,-156
-19,5213,-42,-47,-31,34,45,49,-73,-209
-61,4839,-56,84,115,-28,-62,-73,-110,-193
-63,4632,3,210,156,-72,-150,-183,-186,-147
55,4413,-80,217,116,-93,-185,-243,-216,-17
251,4166,-326,61,35,-127,-231,-268,-175,128
312,3922,-517,-84,-131,-209,-290,-271,-90,268
207,3684,-506,-96,-276,-258,-305,-223,48,480
216,3469,-371,-22,-283,-291,-329,-146,223,798
253,3253,-99,105,-180,-239,-235,-28,353,1071
105,3042,200,85,-69,-60,-9,110,314,947
-59,2844,359,60,175,220,231,268,244,617
196,2472,438,-20,135,296,286,321,175,310
267,1775,286,-225,-87,149,142,156,-2,-280
-91,1235,184,-275,-118,119,189,102,-87,-939
-115,-228,186,-175,-156,109,302,159,-76,-947
97,-2294,220,-68,-162,50,282,161,-103,-773
276,-2541,349,78,-58,22,167,88,-107,-547
130,-1330,356,117,27,69,141,80,-92,-318
-171,498,305,97,86,169,203,110,-51,-267
-347,1960,185,45,126,197,207,102,-23,-246
-416,2470,92,16,156,203,195,99,-10,-227
-429,2469,78,23,143,169,148,27,-63,-264
-347,2334,69,150,105,103,44,-65,-96,-165
-183,2186,27,205,37,39,-30,-43,-18,-31
-1,2067,-64,111,-27,-29,-100,-43,24,-26
64,1926,-102,-51,-58,-74,-135,-91,-40,-81
37,1723,-102,-187,-129,-130,-167,-95,-80,67
-3,1221,-102,-145,-145,-155,-150,-6,-3,165
62,-360,-25,41,-72,-134,-106,76,58,116
105,-2656,-28,101,-7,-168,-141,16,32,53
-7,-4002,-77,163,121,-188,-206,-109,-118,-126
-202,-4757,-110,132,204,-157,-206,-145,-116,-232
-241,-5874,-234,30,252,-109,-139,-161,-61,-168
-96,-7085,-401,-159,242,-70,-63,-173,-83,-67
170,-7647,-439,-337,105,-80,-2,-104,10,247
296,-8741,-254,-322,-115,-82,66,16,179,638
185,-10049,28,-179,-267,-61,152,159,334,880
-46,-11009,171,-82,-303,-27,194,230,370,819
-99,-11267,214,-40,-299,-33,143,186,248,558
-88,-12865,190,-54,-219,11,131,177,204,145
-265,-13898,69,-56,-96,62,144,163,121,-412
-145,-13207,15,-9,-49,5,51,71,-27,-675
-6,-12417,62,90,-7,-48,-26,7,-108,-649
-36,-11641,70,119,26,-46,-8,17,-69,-510
87,-10537,-32,0,0,-30,36,81,51,-185
273,-7983,-144,-142,-61,-12,58,162,192,211
304,-4634,-188,-192,-46,1,73,148,222,451
162,-4276,-127,-171,-42,-22,42,26,68,305
-11,-5726,-74,-169,-78,-53,24,-43,-82,19
-112,-6618,-45,-140,-51,-31,102,-28,-93,-85
-205,-5404,-35,-70,25,13,156,24,-58,-156
-226,-3893,43,-9,39,-3,110,-16,-106,-294
-204,-3081,148,22,70,-21,47,-63,-199,-368
-71,-2072,101,66,92,-4,15,-47,-162,-183
156,-870,27,73,39,-24,-30,-54,-97,11
187,463,-75,71,43,-54,-68,-97,-124,32
97,2799,-103,303,81,-81,-89,-94,-126,51
-8,3479,-125,410,179,-63,-63,-49,-24,151
73,4130,-46,412,289,0,-13,-5,17,257
68,4920,13,242,145,35,57,24,47,320
-24,4631,-35,35,-13,-5,54,8,42,380
303,4218,-105,-145,-151,-101,-9,-22,46,581
636,4340,-235,-393,-298,-176,-44,-19,81,814
567,4128,-281,-526,-409,-267,-93,-54,56,793
350,3367,-292,-529,-449,-277,-94,-12,107,682
160,3249,-273,-423,-339,-209,-84,35,158,628
9,3283,-203,-289,-185,-104,-9,127,228,537
-308,4004,-71,-118,-5,33,105,143,108,111
-515,5520,169,116,182,171,174,90,-205,-437
-385,6564,361,232,228,196,152,-20,-490,-838
-222,7052,350,94,97,81,52,-164,-622,-820
91,7624,178,-46,-5,-3,-46,-243,-550,-516
275,8284,66,-22,34,22,-32,-153,-294,-356
282,8204,-44,-24,65,79,37,106,175,-364
-46,7759,-96,85,173,120,70,216,419,-424
-499,7298,-121,269,282,77,-27,60,296,-341
-709,6868,-203,494,371,45,-117,-80,103,-277
-518,6458,-328,643,535,48,-120,-111,-21,-277
-144,6058,-520,504,455,-29,-120,-101,0,-35
168,5698,-554,533,392,-156,-206,-170,-10,163
503,5367,-365,575,386,-253,-328,-283,-83,205
610,5034,-311,279,13,-318,-338,-254,-27,361
317,4727,-55,-120,-384,-216,-169,-41,186,573
13,4455,222,-360,-480,-148,-94,49,237,413
4,4191,268,-548,-534,-50,46,214,359,286
-115,3948,514,-413,-325,100,174,295,375,233
-324,3697,570,-263,-159,139,182,235,252,210
-143,3479,403,-219,-47,160,188,224,179,20
14,3283,273,-212,16,179,191,200,78,-421
58,3102,117,-251,-56,150,133,142,-34,-503
297,2911,157,-179,-24,105,27,1,-164,-419
400,2728,150,-133,-24,19,-79,-116,-192,-302
8,2559,95,-91,-63,19,-95,-94,-113,-232
-627,2378,106,62,40,139,29,40,25,-121
-1021,2224,187,173,196,247,115,75,98,-39
-959,2049,101,200,280,193,46,-51,33,80
-503,1872,-141,315,306,76,-91,-206,-111,166
-13,1784,-270,334,261,19,-180,-300,-224,224
147,1690,-485,-8,61,4,-132,-213,-106,361
253,1438,-593,-21,-24,-61,-131,-183,-61,312
515,1074,-214,491,42,-148,-262,-353,-288,-93
694,812,23,555,-18,-153,-226,-283,-204,-274
649,804,327,436,-100,-213,-247,-251,-181,-288
877,1004,734,416,-162,-277,-292,-285,-164,-1
1019,1180,699,188,-225,-229,-219,-158,45,453
470,1212,305,-166,-269,-155,-67,52,270,594
71,1054,106,-328,-276,6,169,265,433,525
3,850,54,-471,-185,160,299,335,425,250
-386,706,-27,-442,-50,258,330,245,117,-593
-279,73,-77,-301,-32,215,227,115,-77,-792
219,-974,-126,-216,-27,123,113,62,-23,-369
-12,-2827,-131,-18,165,175,177,160,149,-136
-323,-7192,-150,62,230,170,170,146,189,-96
-330,-11449,-210,-70,163,45,53,22,109,73
-903,-12256,-83,153,404,75,53,23,77,63
-1165,-10390,142,372,451,101,66,63,-4,-279
-461,-5366,34,125,122,20,28,114,-67,-434
316,-1895,-88,-54,-40,-36,11,160,-18,-280
508,-2437,-23,-84,-95,-10,54,167,59,75
-201,-4100,-103,1,-96,103,137,143,-25,-38
-765,-3072,-112,335,151,168,112,2,-247,-545
-623,1761,-305,317,328,128,-48,-220,-439,-793
-685,4027,-527,148,360,148,-110,-306,-426,-747
-734,4075,-352,83,259,135,-119,-323,-396,-714
-350,3086,-369,-123,118,33,-162,-284,-312,-393
96,1838,-537,-397,-148,-30,-67,-122,-135,-15
280,420,-230,-342,-378,-124,-44,-99,-89,13
123,-1037,281,30,-323,-245,-187,-212,-147,106
193,-1984,750,-11,-568,-420,-272,-211,-26,548
782,-3163,946,-245,-603,-501,-326,-238,-6,700
1265,-4812,890,-243,-430,-398,-224,-118,96,794
1001,-7115,575,-219,-172,-27,173,260,398,651
348,-8529,328,-183,-6,219,409,468,510,257
-129,-8397,191,-223,-127,127,292,329,427,80
-128,-8151,46,-363,-387,-88,62,89,302,291
173,-9551,50,-378,-478,-198,-26,-4,231,515
439,-12725,-47,-353,-488,-257,-78,-25,168,389
515,-13033,-106,-390,-292,-169,4,52,171,-23
286,-12269,-16,-200,-33,17,173,166,90,-231
-105,-11534,-17,165,188,158,268,246,56,-220
-80,-10840,13,282,215,160,237,260,100,77
113,-10045,-73,72,72,112,204,355,285,626
-157,-9049,-118,-97,-4,68,153,392,262,520
-483,-8831,-210,-217,-14,11,87,257,-1,-91
-11,-8527,-266,-232,71,18,119,184,-71,-305
710,-8024,-265,-191,38,-74,59,100,-16,-179
688,-7546,-196,-280,-72,-153,-22,36,50,-295
232,-7096,32,-288,-23,-57,25,16,21,-356
-342,-6684,15,-59,79,8,13,-6,-57,-203
-729,-6274,21,354,126,-44,-93,-84,-93,58
-710,-5895,-16,441,119,-95,-193,-205,-219,-37
-419,-5552,-70,320,244,18,-142,-223,-364,-516
24,-5205,20,229,245,78,-91,-209,-313,-776
253,-4880,-39,154,158,139,12,-92,-159,-538
-178,-4571,142,327,199,250,201,112,47,-103
-567,-4253,458,277,-7,38,56,28,123,361
201,-3746,416,-69,-330,-321,-316,-273,-62,575
999,-3477,297,-274,-393,-263,-255,-203,-47,672
1064,-3513,140,-350,-265,-23,-13,-12,26,618
690,-3404,-46,-272,-33,106,79,-16,-101,74
8,-3220,-172,-40,326,302,274,157,17,-257
-857,-3023,-164,200,503,476,472,453,306,-258
-940,-2844,-100,598,618,511,484,510,335,-238
-520,-2673,-184,811,617,389,293,337,199,145
-104,-2514,-410,619,197,23,-75,26,5,504
283,-2371,-640,64,-314,-353,-400,-281,-162,700
376,-2214,-741,-316,-565,-501,-482,-396,-154,787
-12,-2067,-761,-452,-653,-573,-516,-433,3,748
316,-850,-264,-208,-336,-438,-455,-337,166,797
530,6228,550,255,186,-52,-176,-29,395,868
-60,14760,543,110,329,278,28,98,196,50
-94,17357,129,-213,136,359,91,60,-104,-590
-65,16271,-192,-263,196,511,315,192,-117,-535
-97,12612,-409,-336,10,455,366,249,-63,-180
-143,7164,-282,-224,-195,316,333,323,154,266
-312,4682,-20,-4,-94,249,312,348,284,196
-109,5889,228,109,-134,108,153,234,187,6
-100,8032,292,216,-66,35,-3,79,31,-309
-274,7092,86,334,-12,-99,-192,-146,-224,-639
-469,3856,-157,314,-2,-219,-315,-308,-346,-828
-805,5,-272,128,112,-179,-292,-352,-424,-1208
-452,-3345,-133,-32,290,85,-57,-189,-335,-1125
-143,-3812,28,11,389,270,103,-67,-228,-497
-334,-1388,368,155,478,288,133,-67,-223,-98
307,1289,648,54,367,122,-38,-182,-250,183
1383,2085,286,-215,232,-19,-207,-264,-143,551
1551,-668,-548,-627,-24,16,-81,-29,199,919
156,-4395,-945,-776,-493,-69,-26,102,366,811
-623,-7097,-602,-120,-475,-226,-224,-81,148,522
-557,-6901,251,679,-148,-160,-260,-108,46,628
-217,-4739,991,946,17,-20,-146,-64,-22,417
30,-4338,1059,685,-17,1,-89,-84,-48,-112
-166,-5891,710,142,-31,120,56,-24,-115,-727
-504,-5854,389,-63,183,344,287,161,86,-426
-643,-5528,-17,90,399,477,386,271,332,191
-380,-5211,-195,342,477,437,331,220,263,-74
-57,-4918,-190,408,282,203,108,-50,-129,-837
299,-4620,-4,346,-88,-4,-25,-162,-290,-851
716,-4354,434,369,-204,-154,-170,-211,-244,-375
1111,-4096,929,146,-346,-355,-352,-341,-243,-25
1318,-3845,885,-243,-439,-450,-431,-389,-163,378
981,-3623,437,-393,-377,-352,-353,-315,-89,281
-99,-3416,167,-418,-291,-243,-263,-264,-116,-256
-926,-3204,-209,-659,-351,-237,-227,-251,-146,-392
-772,-3009,-266,-769,-458,-137,-109,-109,-18,-174
-88,-2823,-9,-472,-180,134,97,123,169,302
289,-2647,58,-88,235,334,263,261,286,636
93,-2491,-123,-46,265,348,347,371,395,745
-149,-2351,-320,-238,54,240,322,335,333,588
-487,-2212,-191,-82,96,123,168,154,31,-24
-195,-2072,-153,274,174,18,15,31,-48,-72
-59,-1953,-538,390,201,-57,-113,-97,-48,324
112,-1843,-856,668,370,-4,-113,-147,-51,598
801,-1732,-1105,725,347,-74,-240,-265,-70,801
1343,-1628,-1062,508,283,-286,-487,-439,-170,329
1536,-1541,-542,330,351,-203,-349,-277,-131,-384
804,-1451,86,46,318,79,17,-37,-187,-1036
-1019,-1366,853,135,445,336,276,105,-273,-1361
-2369,-1284,1165,101,217,249,254,214,-90,-977
-1831,-1211,1000,-188,-414,-113,-2,104,-7,-652
-517,-1131,412,-769,-891,-368,-170,40,157,-194
594,-1057,116,-1023,-994,-335,-83,201,533,600
1276,-994,166,-822,-821,-256,-65,269,859,1606
885,-917,90,-682,-539,-84,84,412,1025,2257
350,-869,13,-485,-187,152,318,544,997,2470
-606,-825,148,57,210,309,359,414,559,1547
-1248,-786,-212,-10,104,94,51,-68,-241,-29
-893,-742,-485,-494,-243,-204,-296,-555,-902,-1347
141,-695,-417,-747,-447,-333,-419,-675,-1036,-1846
-179,-649,-25,207,323,321,372,237,109,-938
111,-613,-2,100,80,79,170,136,-18,-652
282,-578,-33,-94,-95,-33,-2,58,29,-59
139,-531,-66,-220,-45,49,16,68,93,-260
192,-520,-68,-182,-17,47,-23,-39,-10,-724
712,-486,75,45,-49,-27,-91,-121,-46,-536
163,-448,325,437,31,-24,-103,-174,-154,-457
-528,-430,421,489,72,-129,-260,-374,-431,-829
-499,-405,536,317,55,-182,-318,-437,-528,-1354
507,-373,426,66,-31,-174,-249,-307,-287,-898
1567,-339,236,40,47,-9,11,9,192,270
765,-323,188,274,314,285,330,282,423,434
306,-303,105,345,354,279,275,184,201,30
240,-292,-2,190,137,29,-18,-141,-169,-212
-255,-271,-119,256,57,-197,-295,-389,-301,-42
-76,-254,-266,585,142,-291,-432,-463,-120,679
-546,-252,-437,937,300,-171,-317,-303,-15,678
-709,-236,-239,1256,602,77,-79,-144,-100,84
-549,-214,32,1327,870,310,113,-34,-119,-113
-781,-193,-9,1176,727,226,25,-183,-321,-431
-883,-186,-148,638,383,-3,-197,-431,-536,-731
-619,-174,-258,406,576,161,-70,-303,-348,-866
44,-164,-320,-31,683,440,245,91,61,-635
900,-154,-154,-915,273,406,343,321,325,-122
719,-145,-252,-1363,-379,98,161,287,360,181
-519,-132,-530,-1176,-1104,-376,-208,53,206,354
-1429,-127,-370,-674,-988,-388,-160,142,264,572
-1081,-121,-6,-408,-626,-223,37,318,462,695
-160,-122,227,-464,-590,-226,14,271,541,986
529,-113,300,-701,-727,-327,-77,125,441,1204
1217,-104,283,-896,-754,-323,-63,63,338,901
1728,-92,230,-870,-485,-121,98,110,137,-175
1048,-96,79,-416,51,316,426,307,-5,-1100
55,-91,-120,-172,280,518,598,389,-148,-1508
-1,-92,-278,-97,146,326,432,252,-295,-1395
300,-85,-88,192,120,135,172,74,-301,-1005
-37,-77,396,424,170,15,0,-62,-351,-1006
-885,-55,485,415,219,64,56,-54,-299,-1075
-843,-48,259,295,240,123,91,15,-102,-454
-176,-44,202,235,146,25,-2,-24,20,319
44,-45,231,293,178,54,8,28,139,789
-40,-42,-86,179,286,205,168,204,331,990
-359,-41,-154,122,426,291,206,166,186,395
-144,-35,-111,151,514,256,111,27,-54,-378
-197,-42,-268,16,211,-77,-193,-239,-195,-375
-292,-40,-290,-112,-96,-328,-391,-401,-281,34
546,-36,17,-45,-144,-247,-233,-201,-59,536
1592,-43,151,-116,-283,-232,-135,-54,115,959
1559,-46,187,-172,-359,-303,-140,-57,217,1014
695,-36,132,-93,-327,-365,-197,-100,204,718
-96,-33,236,134,-47,-44,95,73,85,34
-1223,-33,204,192,246,333,443,296,-41,-409
-1353,-28,-85,95,316,431,508,314,-151,-726
-283,-19,-244,-47,173,172,189,36,-310,-781
372,-14,-164,145,177,-94,-174,-285,-483,-743
404,-12,-308,188,104,-267,-359,-345,-394,-806
24,-12,-537,-188,-163,-450,-494,-317,-110,-358
-662,-8,-800,-590,-318,-402,-389,-202,106,154
-280,-15,-596,-458,-263,-320,-324,-231,77,528
663,-30,-207,38,-17,-290,-339,-306,127,1324
153,-26,-332,121,160,-79,-102,-85,238,1459
-938,-14,-527,-243,-71,56,203,184,253,1029
-629,-16,-237,-23,-73,184,365,272,99,475
-525,-11,440,804,338,469,564,407,27,-478
-667,-3,997,1180,368,547,641,503,100,-1189
-738,-9,785,656,99,193,294,230,111,-1167
-312,-14,297,496,74,-200,-138,-86,209,-122
316,-16,201,782,193,-209,-184,-51,392,1131
490,-8,86,529,306,9,-3,88,332,1482
923,-5,-48,-27,-3,-39,-81,-157,-197,639
796,-22,-270,-543,-436,-202,-250,-365,-526,-216
188,-30,-175,-445,-490,-261,-276,-257,-448,-733
-55,-7,137,-92,-283,-10,31,110,-174,-977
-181,6,348,-73,-113,242,306,343,103,-610
-92,6,244,22,98,247,270,251,114,-296
-434,-1,-21,262,376,97,-21,-122,-124,-375
-71,3,-260,322,441,47,-140,-288,-202,-342
255,0,-479,101,554,303,157,65,119,230
128,8,-714,-51,446,222,108,147,254,709
56,9,-260,32,65,29,-20,82,190,533
-135,1,310,273,89,23,34,86,73,-440
35,-13,924,379,42,-26,8,-5,-112,-1091
289,1,968,186,-184,-145,-91,-67,-96,-812
746,6,442,-377,-360,-221,-138,-49,33,-65
660,1,-64,-643,-371,-181,-94,20,76,172
102,6,-388,-810,-486,-231,-130,-28,73,324
351,-7,-198,-846,-512,-250,-169,-101,-10,181
985,-2,-22,-675,-267,-69,-27,-22,-57,-291
705,6,-321,-384,31,124,145,99,27,-189
-586,9,-836,-443,-17,108,135,98,45,367
-1198,6,-732,-289,165,252,190,110,-41,712
-719,-3,-457,8,368,288,147,29,-140,827
-706,-2,-173,310,436,284,135,45,0,550
-1268,-5,432,476,478,333,226,130,32,-412
-815,6,903,349,190,211,168,95,-120,-710
-341,4,652,3,-292,-48,21,34,-149,-470
-421,-2,107,-397,-467,-155,-19,40,-123,-614
-557,1,-2,-190,-129,-114,-39,39,-49,-529
327,0,4,184,170,-149,-204,-165,-199,-51
1039,4,-84,63,206,-125,-220,-267,-284,182
788,0,-370,-434,-100,-150,-190,-236,-206,-63
296,5,-403,-310,-77,-33,-22,-3,18,-375
286,1,71,97,5,7,59,177,249,-3
578,-6,502,139,-147,-98,14,194,338,532
800,-7,401,-256,-398,-191,-60,134,395,999
288,-4,-49,-648,-511,-178,-34,148,381,1147
-597,-10,-218,-397,-206,65,161,267,187,110
-596,-5,-110,0,77,267,287,270,-71,-1006
-371,-4,3,436,312,343,307,214,-163,-1261
-249,4,-112,609,336,241,168,84,-190,-1150
33,10,-206,500,62,-113,-211,-256,-368,-938
-261,5,146,592,14,-251,-329,-363,-357,-299
-262,5,432,703,38,-174,-199,-226,-179,62
66,2,534,607,110,-51,-44,-96,-103,-10
108,1,822,760,311,156,131,65,-71,-248
56,-2,782,785,393,292,242,198,-19,-310
-72,-7,507,291,283,308,273,227,61,-183
607,10,219,-227,138,240,195,153,58,-258
967,11,-185,-245,218,253,176,158,164,9
364,6,-641,-131,191,145,78,115,352,717
-86,4,-1017,-589,-75,-87,-89,20,394,1150
-169,12,-925,-487,-94,-300,-300,-213,124,1036
-396,17,-656,403,327,-269,-397,-381,-117,791
-683,30,-554,878,888,23,-215,-283,-201,177
-1226,18,-792,243,743,98,-85,-215,-288,-401
-757,11,-963,-814,-142,-83,-88,-209,-272,-273
650,16,-298,-936,-834,-197,-62,-98,-75,-176
1515,17,802,-127,-776,-364,-206,-162,-66,-376
549,19,1398,90,-767,-429,-191,-68,95,-378
-164,7,1223,-262,-723,-190,77,226,312,-55
428,0,447,-662,-635,-47,181,334,420,614
97,-6,-207,-671,-360,50,223,336,516,1184
-283,-4,-249,4,109,189,224,189,312,1399
-103,8,-340,107,116,157,96,-94,-117,919
97,16,-738,-332,-127,-22,-67,-296,-426,-26
699,26,-1024,-443,-233,-233,-312,-467,-671,-959
-11,28,-845,-140,10,-102,-195,-222,-507,-1282
-1202,24,-143,657,552,144,38,89,-293,-1115
-1541,33,591,1181,806,370,300,396,13,-594
-1465,25,907,852,657,534,543,638,234,-479
-474,24,963,408,336,375,428,473,191,-143
18,53,777,276,215,190,237,229,-10,-229
167,420,745,278,158,33,34,-68,-302,-977
779,730,792,270,-78,-145,-152,-223,-216,-826
1017,151,526,342,-252,-314,-295,-256,30,-93
1406,44,194,536,-180,-485,-512,-328,243,1048
1398,51,-272,657,7,-542,-638,-363,381,2208
533,36,-930,85,89,-485,-638,-402,221,2232
-8,49,-1406,-468,261,-171,-334,-203,103,1251
321,106,-1443,-643,303,208,87,113,106,18
-494,70,-485,50,536,763,696,555,84,-1295
-1727,47,483,430,530,936,885,620,-189,-2059
-1683,47,776,332,175,738,710,543,-139,-1840
-1001,57,1041,152,-10,488,520,438,-29,-1256
-407,87,1013,-587,-434,-25,120,99,-102,-745
-512,47,463,-1183,-684,-223,-20,70,58,-265
-277,242,-68,-1240,-704,-204,-21,91,62,-136
931,522,-477,-1102,-715,-340,-208,-95,0,452
1849,427,-672,-459,-446,-349,-287,-122,176,1553
1418,249,-604,-96,-176,-232,-264,-94,371,2071
891,905,-699,-384,-216,-356,-433,-267,286,1559
600,2741,-717,-569,-313,-524,-630,-506,-149,130
1256,4670,-353,-523,-294,-592,-676,-668,-634,-1096
1328,4194,49,-305,-125,-330,-255,-255,-266,-639
-428,3295,295,116,73,-59,74,132,256,458
-1179,2904,619,444,293,288,358,376,444,1094
-955,1195,555,203,110,386,494,550,607,1440
-1065,-697,144,-194,41,407,514,563,620,994
-2013,-894,-247,-115,323,533,598,597,465,-151
-1580,-296,-559,-206,211,346,428,434,187,-543
-510,324,-382,-122,98,137,190,154,-200,-975
10,1241,379,461,413,207,138,-2,-446,-1691
859,2121,981,636,314,166,87,-15,-399,-1445
1363,2943,915,240,11,89,43,6,-248,-823
1567,3224,533,18,-189,-110,-142,-118,-192,-386
949,2756,207,67,-87,-154,-184,-165,-173,-260
-129,1574,111,270,145,-73,-130,-206,-231,-244
-982,267,7,407,124,-76,-156,-331,-382,-183
-1019,-739,-212,92,-106,-209,-261,-416,-475,-181
-286,-508,-477,-324,-472,-404,-394,-485,-511,-35
782,-256,-431,-291,-615,-589,-563,-566,-430,458
559,-1322,50,337,-240,-372,-321,-253,11,978
-610,-1682,394,572,173,94,180,225,426,840
-1501,-1696,536,687,531,486,570,560,534,-64
-1503,-1482,233,487,393,254,293,254,119,-571
-442,-465,93,22,142,-85,-135,-195,-269,-406
-310,1326,132,-234,143,36,-26,-86,-164,-575
164,2689,54,-306,15,59,30,-1,-74,-650
919,3848,-74,-503,-339,-207,-202,-197,-154,-501
1295,4065,-159,-791,-617,-399,-357,-273,-38,174
1474,4235,-127,-662,-532,-304,-297,-130,201,1126
1035,4138,-136,-452,-290,-54,-78,71,309,1326
683,3613,-236,-311,-137,72,54,145,235,724
470,3208,-180,4,206,340,330,376,373,235
-685,2805,-84,362,617,714,696,668,476,-413
-1313,2289,-179,275,554,676,627,543,314,-313
-775,1510,-381,5,343,414,312,185,-65,-219
-3,912,-400,-125,201,244,125,-55,-270,-293
118,705,-355,12,198,115,20,-100,-157,95
-394,578,-296,318,174,36,10,-120,-160,-28
-678,393,-240,175,48,-37,3,-125,-184,-287
-646,887,-84,-53,-77,-106,-21,-109,-158,-240
-20,2505,-107,-42,-127,-61,-31,-115,-149,123
115,5530,-228,176,65,-3,-43,-95,32,521
100,7797,-560,33,-53,-155,-199,-164,170,797
467,8941,-889,-391,-304,-389,-413,-310,70,516
604,9682,-799,-252,-179,-340,-396,-302,-64,41
783,9595,-308,148,-93,-301,-349,-272,-179,-155
682,9549,-55,427,-221,-453,-455,-303,-188,143
623,9358,2,1,-608,-647,-571,-256,-64,545
998,8842,283,-103,-756,-781,-682,-256,51,908
623,7974,341,143,-399,-416,-290,53,310,1333
-1846,6442,576,480,268,446,631,720,715,1155
-3195,5447,1215,724,839,1020,1114,870,414,-217
-2180,5118,1221,599,866,828,826,467,-121,-1212
-718,4697,507,-7,525,488,496,208,-227,-1319
-48,4619,164,-407,344,357,366,170,-118,-1098
254,4937,-92,-481,53,48,23,-110,-405,-1317
288,4815,-81,130,201,7,-82,-264,-627,-1279
383,3693,-46,749,490,110,16,-138,-378,-653
484,3688,-202,652,400,70,16,-35,-45,-169
249,4557,-396,-172,-187,-173,-141,-115,-98,-336
163,5539,-653,-543,-503,-416,-394,-318,-226,-278
294,6148,-638,109,-65,-274,-401,-369,-237,93
838,6484,-441,397,104,-70,-194,-107,238,1164
1198,6844,-189,-182,-295,-77,-123,20,453,1731
403,6666,-219,-400,-578,-94,-61,155,460,1680
-362,6190,184,207,-427,-185,-134,102,292,1262
-133,6006,635,199,-252,-323,-282,-54,149,815
407,5867,363,-390,-468,-512,-455,-212,45,1032
1104,5589,76,-705,-484,-547,-524,-359,-123,952
1077,5187,288,-330,-119,-260,-319,-338,-354,-302
906,4929,345,-217,-160,-144,-257,-431,-512,-1076
1580,4834,155,-525,-349,-215,-236,-254,-118,-60
1327,4498,77,-545,-218,100,243,375,606,1125
187,3959,-199,-409,-137,197,386,493,622,1524
-400,3758,-92,-172,-130,-24,62,75,14,825
-1049,3897,90,205,122,136,150,47,-375,-1102
-1594,3847,271,478,462,507,479,296,-435,-2286
-2194,3706,191,250,351,499,495,334,-457,-2692
-1400,3586,90,57,66,270,312,260,-333,-2028
-932,3215,260,312,177,284,316,267,-166,-1377
-374,2804,388,422,303,274,299,206,-59,-920
430,2445,400,299,112,12,-16,-23,-16,-258
491,1910,51,-124,-114,-129,-163,-2,294,565
379,1295,-344,-387,-116,4,29,242,694,1387
527,651,-468,-63,91,210,248,369,755,1653
313,240,-563,174,143,209,228,246,365,968
-118,69,-254,401,209,228,175,74,-114,-373
-188,301,122,723,443,173,-26,-200,-470,-1258
-592,574,481,1297,842,93,-198,-393,-650,-1359
-107,913,689,1181,946,213,-37,-185,-365,-903
386,1382,-10,59,285,76,-11,38,81,-58
396,1752,-962,-1069,-656,-415,-332,-64,421,1516
777,2127,-829,-817,-1061,-724,-616,-253,411,2198
671,2241,-276,-374,-919,-726,-642,-309,253,1902
-163,2168,421,-508,-856,-594,-408,-166,374,1842
-1320,2028,538,-600,-637,-198,-6,76,201,755
-1260,1873,322,-352,-127,269,382,310,-88,-766
-59,1807,319,-140,20,170,190,28,-491,-1562
1072,1740,81,-377,-287,-251,-297,-486,-809,-1462
315,1635,-198,-379,-351,-269,-298,-426,-571,-1005
473,1553,-204,-94,-226,-193,-222,-239,-223,-219
904,1455,-227,-127,41,27,-6,11,157,863
-424,1361,-600,-393,312,246,230,223,310,1002
-1921,1255,-691,-111,845,663,605,480,289,-14
-1684,1170,-223,272,933,690,551,363,65,-802
508,1137,216,251,321,92,-85,-257,-347,-644
1379,1090,434,133,-284,-302,-376,-439,-325,-304
829,1025,372,-44,-341,-181,-131,-153,-85,-84
136,960,433,78,-117,44,123,72,-59,-592
-556,913,544,384,199,145,163,84,-130,-901
-683,867,265,293,268,178,198,178,59,-693
-872,824,72,14,183,143,173,165,60,-731
-491,765,-85,-271,-209,-80,-11,49,17,-61
396,721,-163,-278,-492,-302,-194,-69,71,991
292,673,-151,-12,-254,-117,-6,107,303,1258
-662,634,50,414,269,268,312,329,397,292
-706,609,81,462,507,394,357,229,103,-772
604,575,-101,-60,283,156,89,41,183,25
1106,524,-222,-416,153,83,13,82,387,607
439,500,-276,-361,84,92,75,104,280,132
197,478,-289,-27,-37,-41,1,-40,77,-389
606,435,-219,518,-56,-196,-155,-200,-60,-212
293,411,-371,750,-76,-417,-408,-351,-121,387
342,379,-736,252,-255,-540,-530,-344,-121,882
401,364,-1003,-420,-465,-482,-466,-261,-241,391
217,353,-621,-697,-641,-469,-444,-250,-192,331
136,340,387,-548,-641,-440,-424,-254,-70,698
-44,305,1357,-112,-169,12,-17,-30,-34,396
452,295,1601,276,381,514,409,186,-114,-353
550,285,865,91,422,530,433,130,-251,-611
-1135,261,94,-125,248,322,282,75,-111,31
-1771,244,-155,-20,271,326,283,148,72,272
-420,217,-305,-176,12,54,11,-46,-39,-145
-269,204,-327,-250,-146,-119,-138,-120,-155,-952
-370,193,-181,-34,58,72,51,74,-35,-1359
132,182,-120,29,149,127,131,203,192,-599
-291,166,-28,153,290,126,98,190,250,188
-388,155,-92,242,304,89,-10,21,108,674
525,150,-303,123,261,169,28,-31,-31,604
881,146,-494,-20,234,345,228,116,37,775
106,137,-495,466,405,348,236,126,36,553
-298,128,-301,1048,457,164,99,21,-31,12
99,128,-43,669,6,-195,-185,-229,-242,-248
281,126,33,588,-114,-392,-433,-454,-403,-459
55,123,17,889,74,-342,-513,-534,-403,-810
-46,114,-36,551,294,-271,-513,-528,-389,-769
77,101,-78,234,123,-264,-404,-382,-202,-194
190,100,34,-52,-136,-192,-207,-120,104,358
636,93,752,-63,-97,-42,32,135,277,435
-198,74,994,-151,-147,128,302,418,402,191
-2019,64,653,-435,-277,249,490,572,377,-285
-1038,61,566,-544,-316,185,389,387,143,-461
-153,53,284,-663,-430,-106,10,-70,-356,-900
292,56,-44,-670,-302,-98,-6,-85,-344,-642
441,54,-364,-676,-130,128,262,258,100,187
579,51,-444,-703,-127,136,287,296,303,768
592,42,-590,-788,-284,-93,22,119,355,1399
869,41,-787,-907,-451,-342,-261,-87,270,1547
1538,47,-547,-669,-298,-345,-333,-120,270,1420
1249,43,-115,-33,231,-5,-100,48,306,769
262,44,145,356,562,321,179,216,231,-199
-829,42,231,318,311,241,78,17,-191,-1210
-1367,36,391,361,15,37,-113,-215,-554,-1999
-1518,29,625,724,245,207,68,-79,-529,-2046
-1103,33,555,718,281,173,53,-123,-510,-1485
-316,31,267,454,130,-57,-152,-260,-435,-548
635,28,-196,-154,-244,-263,-261,-292,-288,314
1041,20,-413,-513,-396,-274,-188,-149,-57,724
642,14,-209,-453,-336,-28,135,208,250,502
-894,17,53,-59,-41,181,347,379,360,151
-740,26,103,195,-15,-25,65,110,216,506
958,33,204,167,-130,-249,-213,-163,-1,594
1355,26,229,-87,-180,-202,-191,-147,-34,443
657,8,-107,-228,-49,29,48,80,140,316
-294,4,-414,-130,64,219,294,335,411,448
-117,21,-568,236,113,158,194,277,490,942
271,20,-387,892,228,1,-113,-18,169,645
-367,19,21,736,207,-10,-174,-120,14,282
-1430,8,150,82,116,17,-88,-74,81,-123
-1660,22,-149,-277,179,79,0,-25,82,-549
-1317,3,-75,-138,335,139,46,-46,-152,-964
-1538,1,261,1,324,209,131,-64,-416,-1464
-353,1,348,-208,43,164,144,-158,-524,-1099
660,-5,331,-202,-87,153,190,-81,-262,-170
588,-2,97,-34,-75,137,267,139,134,327
894,3,-168,-349,-343,-182,4,6,104,217
990,7,-320,-381,-346,-394,-257,-209,-119,326
570,7,-455,-46,-29,-255,-222,-60,57,1037
544,15,-447,136,94,-78,-100,143,265,1454
550,9,-387,147,108,-173,-207,3,127,1233
382,13,-391,241,138,-322,-406,-229,-76,870
-364,17,-382,262,223,-198,-320,-190,-137,390
-436,23,-222,-181,8,-114,-186,-68,19,104
620,25,-22,-170,-161,-120,-183,-39,276,509
1586,23,655,768,227,-175,-364,-264,149,594
1503,13,1014,847,221,-380,-603,-533,-218,346
410,15,627,-185,-326,-461,-551,-558,-534,-322
-718,0,-375,-1223,-799,-368,-270,-259,-334,-349
-1028,4,-266,-717,-325,114,263,316,199,79
-93,0,586,252,391,680,813,806,590,-50
-438,7,739,362,565,895,1045,1022,756,-248
-1100,-3,577,62,423,789,934,829,421,-1038
-585,4,336,-11,250,602,727,538,94,-1062
-779,1,-64,-114,-75,243,385,235,-27,-567
-781,2,-199,-288,-413,-142,3,-74,-200,-632
34,0,30,-250,-348,-144,-33,-91,-212,-611
63,1,39,-53,-113,-30,37,4,-81,-278
127,1,-224,-22,-134,-141,-100,-92,-51,181
503,4,-357,-13,-278,-397,-419,-395,-217,450
949,3,-511,-164,-408,-610,-698,-621,-327,774
1220,-7,-660,-294,-309,-431,-519,-431,-138,914
143,-5,-571,-84,28,31,-18,14,174,696
-1153,0,-383,149,266,403,407,419,416,87
-1260,-9,3,324,343,430,378,325,162,-855
-598,-6,473,524,315,172,44,-35,-218,-1172
313,-16,514,494,241,-71,-202,-277,-295,-560
909,-23,-9,-16,-30,-295,-374,-368,-107,417
1130,-28,-818,-649,-477,-550,-522,-348,209,1519
640,-48,-1500,-1072,-662,-528,-378,-134,434,1862
-305,-108,-1257,-854,-501,-346,-202,-41,267,933
-553,-211,-317,58,-99,-186,-169,-155,-58,59
-678,-476,960,1091,297,163,151,51,-73,-474
-768,-623,1239,1187,397,327,279,99,-299,-1264
-76,-439,1258,722,77,18,-56,-232,-696,-1442
69,-421,1022,327,-37,-35,-74,-250,-692,-1117
-845,-652,504,344,394,380,332,133,-266,-777
-999,-740,247,563,933,768,684,479,147,-476
53,-464,104,490,1059,779,664,500,250,-316
574,-337,-134,118,600,452,384,351,254,20
17,-621,-184,-296,-61,77,70,151,220,183
-2,-1186,-3,-158,-233,-68,-81,22,171,107
-144,-2117,-58,-39,-5,163,130,194,249,212
-397,-3646,-449,-430,70,337,300,324,227,473
244,-4915,-835,-584,-161,135,93,176,158,834
857,-5059,-376,-189,-441,-240,-329,-214,-106,598
1224,-4999,605,-1,-381,-447,-619,-541,-442,-230
1619,-4824,669,-486,-360,-439,-553,-440,-329,-343
-73,-4976,197,-403,150,-13,-33,57,-34,-709
-882,-5055,121,-132,187,83,145,211,150,-356
-784,-4520,189,-153,-31,55,139,125,13,-522
60,-3167,361,-162,-304,-163,-128,-153,-321,-871
641,-2105,587,45,-402,-203,-180,-141,-221,-450
112,-1497,404,142,-264,-44,-20,0,-37,-223
-300,-1002,-73,73,-151,-3,40,53,115,-3
-353,-653,-296,-136,-326,-170,-115,0,285,537
-173,-580,-329,-256,-308,-225,-159,6,402,1031
-33,-758,-309,-257,-208,-207,-114,34,445,1350
0,-1291,-407,-232,-199,-221,-124,-43,296,1359
-78,-1938,-270,-98,-2,-28,33,-31,-5,576
-299,-2409,-46,98,323,202,212,57,-173,-170
-150,-2491,-73,194,398,120,55,-117,-323,-453
-61,-2577,-89,307,381,172,98,-83,-249,-528
57,-2350,-153,438,492,229,144,17,-106,-324
195,-1889,-219,446,413,124,0,-48,-89,-17
-116,-1696,-167,362,291,-13,-124,-117,-109,83
-331,-1311,-45,-11,2,-175,-190,-113,-121,38
20,-587,85,-328,-362,-204,-91,34,37,134
994,207,194,-175,-232,-68,81,176,164,352
1285,1035,96,-37,-374,-174,-1,81,100,535
635,1572,-87,-218,-568,-341,-216,-162,-58,474
950,1998,-385,-655,-903,-700,-599,-524,-241,515
1382,2142,-757,-1023,-1008,-798,-653,-467,-22,898
843,1841,-494,-662,-530,-385,-245,-35,361,1353
-367,1141,-123,-196,-35,1,29,123,287,1152
-1608,-78,303,317,582,639,621,545,339,380
-2438,-1017,550,611,902,988,922,691,131,-1133
-1522,-1304,233,284,598,713,670,435,-132,-1953
-992,-1519,-28,133,415,529,509,341,-94,-1784
-332,-1222,-159,380,357,319,280,206,-82,-974
741,-538,-233,481,188,62,24,54,-58,-333
916,-70,-31,430,158,-6,-32,48,42,-89
565,520,274,691,317,-36,-96,-40,88,-6
-96,1170,367,863,417,-112,-222,-211,-47,-286
-503,1720,448,615,235,-249,-321,-320,-196,-461
-312,2381,391,89,-114,-336,-341,-361,-263,-248
100,3022,-45,-380,-388,-364,-325,-325,-238,180
590,3369,-418,-891,-654,-512,-454,-369,-128,716
741,3367,-147,-846,-614,-491,-446,-367,-74,804
1953,3243,40,-634,-382,-309,-291,-216,107,805
2263,3075,-166,-468,-170,-60,-39,68,339,741
-219,2881,-459,-368,-6,114,150,246,390,431
-1919,2677,-329,-105,258,272,274,301,288,-72
-1965,2524,-356,-48,260,219,242,216,172,-172
-1397,2388,-335,-80,326,348,408,315,165,-196
-583,2255,-394,-87,400,487,559,449,188,-179
8,2134,-146,240,410,271,263,157,3,-242
353,2019,383,484,253,-31,-130,-228,-304,-443
950,1900,300,78,-172,-296,-378,-413,-331,105
808,1780,138,-202,-451,-397,-437,-455,-336,411
-30,1679,115,53,-383,-330,-368,-406,-366,-8
-401,1585,282,418,-194,-275,-340,-399,-421,-239
590,1497,300,422,-55,-192,-229,-281,-243,385
1047,1413,236,296,132,145,189,170,130,517
291,1323,309,220,238,380,468,430,258,-271
-86,1249,491,289,260,352,395,325,154,-615
37,1172,280,136,100,101,103,51,49,-215
1,1091,-130,-62,-57,-82,-36,-34,138,390
-315,1027,-234,-21,-3,-59,6,40,270,613
-418,966,-157,-97,-62,-133,-114,-23,191,355
-596,906,-259,-339,-144,-220,-215,-115,-19,-129
-675,845,-430,-438,-109,-135,-126,-123,-272,-493
-309,803,-263,99,208,138,119,52,-299,-411
-488,746,66,623,483,527,539,453,-52,-259
-875,697,147,497,328,494,554,474,32,-679
-1204,658,108,431,149,199,236,153,-168,-1231
-645,627,39,372,48,-12,-3,-68,-200,-906
153,586,40,218,-49,-109,-121,-76,52,39
680,563,94,-120,-211,-115,-124,-8,156,327
805,540,65,-552,-277,-40,-18,96,200,278
130,494,-80,-655,-233,40,49,123,234,363
-166,463,-154,-469,-23,95,23,23,91,296
-240,442,-31,-127,202,178,57,3,-14,45
-137,419,-116,306,379,149,-27,-93,-184,-183
203,388,-540,334,369,69,-129,-224,-336,-204
211,348,-693,274,111,-44,-196,-293,-416,-106
308,337,-808,151,-21,-167,-251,-258,-247,258
577,319,-463,11,-90,-268,-306,-220,-116,430
1019,299,407,456,13,-254,-276,-183,-72,247
1302,272,1099,868,109,-31,-40,0,77,32
311,257,724,458,192,97,77,115,226,114
-580,238,-284,-301,-150,-61,-28,46,202,421
-619,214,-317,-241,-292,-66,-25,-17,16,296
-209,207,343,39,-171,-60,-74,-104,-204,-112
480,197,749,-155,-336,-210,-221,-195,-255,36
690,184,337,-670,-515,-316,-278,-256,-236,153
556,168,129,-768,-623,-406,-330,-347,-241,-43
204,157,231,-525,-475,-247,-132,-117,38,-19
210,147,316,-358,-313,-65,75,168,336,187
611,141,212,-363,-367,-145,-27,138,356,667
490,107,-92,-437,-392,-215,-85,138,428,1167
-149,-7,-176,-200,-148,-44,65,271,533,945
-633,-278,-114,171,190,216,265,386,418,-48
-389,-694,27,383,488,436,423,411,173,-908
-632,-1289,-26,493,608,472,427,318,-39,-1137
-684,-1921,-193,422,556,434,411,312,-55,-843
-388,-2533,-435,-5,270,245,270,267,48,-301
-316,-3275,-329,-295,1,54,111,101,67,-105
20,-3346,44,-279,-320,-210,-144,-123,59,505
702,-2937,273,-281,-506,-384,-325,-233,131,1378
619,-2696,47,-331,-477,-336,-248,-165,151,1457
-20,-2544,-8,-280,-283,-151,-41,49,259,913
-757,-2511,-15,-183,-6,96,165,198,200,-462
-1131,-2632,175,158,320,373,367,270,-44,-1641
-553,-3198,88,348,273,181,85,-112,-523,-1131
-247,-3290,0,308,235,98,-8,-189,-465,-686
-425,-3702,-90,301,213,107,24,-99,-258,-527
-377,-4090,-191,178,166,135,98,19,-66,-277
482,-4248,-140,138,40,-33,-44,-66,0,291
1203,-4515,118,337,44,-107,-113,-92,142,868
1259,-4851,192,130,5,-94,-34,7,306,1152
1089,-4865,78,-162,-151,-211,-138,-89,156,889
479,-4669,-98,-299,-140,-213,-159,-139,15,474
95,-4474,-91,-259,-29,-89,-27,-20,85,271
-46,-4073,41,-133,81,85,121,71,42,-355
-186,-3345,132,-134,92,121,132,49,-87,-782
-228,-2657,-141,-314,-88,-6,35,16,-7,-65
-498,-1949,-256,-260,-87,-48,-7,-1,35,425
-430,-960,-112,11,128,19,10,-21,-28,357
-164,321,-59,166,312,157,116,5,-141,3
-168,1144,64,188,353,301,217,43,-259,-527
-342,1520,76,136,184,257,163,50,-157,-293
-267,1767,22,74,-37,55,-22,-31,-34,477
-431,1829,-123,-37,-138,-27,-61,-13,89,501
-221,1981,-493,-265,-219,-87,-71,-8,69,-38
297,1888,-577,-293,-128,13,77,123,140,-163
399,2009,-62,57,149,206,231,210,67,-398
98,1959,305,213,182,152,118,1,-251,-716
-17,2142,226,100,33,-22,-55,-174,-314,-548
-187,2497,193,56,-19,-79,-81,-152,-193,-497
13,2887,66,-50,-92,-152,-121,-134,-97,-334
496,3262,-154,-212,-203,-260,-233,-135,67,315
787,3363,-243,-339,-326,-417,-421,-248,185,835
597,3285,-281,-99,-83,-400,-504,-374,1,559
134,3105,-200,493,377,-62,-255,-182,71,442
58,2918,-202,409,420,100,-84,30,423,902
76,2748,-583,-308,0,-116,-246,-147,274,991
-349,2589,-667,-470,-225,-230,-313,-332,-183,83
-263,2440,5,151,-5,-131,-144,-176,-176,-288
-1041,2283,591,470,66,131,162,128,-96,-701
-1429,2136,664,414,151,401,458,337,-136,-1012
-733,1997,816,565,244,459,530,342,-202,-975
-41,1881,776,424,245,317,340,181,-228,-774
142,1740,412,10,150,234,228,144,-58,-172
142,1569,82,-221,73,185,185,150,83,203
349,1433,-104,-162,3,138,175,160,144,294
487,1365,-282,-257,-224,-30,35,47,88,227
342,1275,-279,-133,-223,-117,-51,-14,34,165
390,1208,107,491,112,30,21,50,97,135
32,1162,255,1011,464,187,83,92,163,97
-932,1112,135,1013,670,232,109,100,144,-129
-1048,1111,55,670,440,8,-96,-131,-155,-457
-248,1066,7,145,11,-224,-301,-346,-328,-550
916,1007,-92,-678,-332,-235,-259,-293,-213,243
736,928,-140,-692,-461,-239,-177,-179,-31,826
446,853,-31,-712,-529,-153,-34,-8,97,1005
-292,718,9,-620,-399,-18,110,122,90,401
-781,465,133,-479,-365,-72,50,85,-113,-555
-45,198,274,-212,-338,-178,-72,9,-219,-842
637,-273,363,309,-24,17,98,160,-20,-522
2,-913,191,404,128,126,225,225,148,-382
-846,-1314,-22,182,139,106,184,121,145,-315
-46,-1227,-320,-187,96,65,95,0,195,221
679,-875,-509,-347,39,-33,-21,-82,272,916
547,-601,-483,-586,-155,-134,-61,-56,260,908
254,-370,-272,-677,-203,-66,24,45,94,65
276,-65,185,-38,131,82,109,153,13,-537
626,232,537,265,105,-38,-25,117,49,-288
942,294,282,-162,-215,-252,-176,60,235,428
563,169,-65,-573,-496,-398,-309,-128,51,341
311,40,-78,-375,-323,-269,-252,-176,-115,81
-1062,-729,142,104,80,98,64,37,-30,-240
-2019,-1750,221,277,331,379,328,179,-14,-748
-868,-2127,230,140,225,264,227,65,-66,-547
-150,-2491,104,7,72,46,27,-68,-62,63
281,-2951,-74,16,70,-81,-126,-211,-99,500
481,-3407,-280,27,169,-66,-127,-215,-67,640
242,-3679,-582,-106,138,58,82,-17,-26,184
399,-3433,-513,-57,27,79,168,29,-139,-618
-128,-3196,-343,280,53,9,63,-67,-217,-1156
-483,-2879,26,970,409,44,2,-89,-123,-919
-463,-2417,333,1066,478,84,-6,-46,63,-127
-227,-1728,0,494,473,159,36,-23,107,419
97,-781,-389,-73,387,200,61,-32,36,665
492,32,-482,-355,26,107,30,-70,-86,388
552,538,-232,-171,-131,-118,-141,-190,-204,244
47,664,92,70,-356,-352,-296,-294,-303,-12
77,588,689,203,-283,-239,-181,-148,-167,9
498,204,639,-73,-185,-52,24,83,108,383
1031,-135,69,-564,-355,-157,-54,29,128,610
1014,-549,-183,-658,-432,-210,-136,-108,-39,400
116,-1041,-136,-361,-243,-59,-7,-27,-95,-195
-1121,-1276,-74,-140,-155,61,187,237,93,-397
-1114,-1055,245,-42,-137,131,351,481,348,-150
-269,-613,485,9,-160,-14,142,265,225,275
226,-288,292,-74,-125,-62,24,115,171,672
22,151,-6,-172,-72,-24,32,102,168,365
-453,909,-176,-189,-35,-5,12,0,-4,-136
-58,1470,-295,-215,-36,3,27,0,14,249
270,1864,-287,-264,-93,-23,-7,37,132,458
-112,2203,-225,-135,75,90,64,84,97,-11
37,2375,-118,124,293,132,44,30,-4,-296
109,2366,-200,430,401,194,80,48,-8,-663
-346,2328,-354,760,540,313,152,52,-128,-941
-541,2227,-370,1048,502,237,55,-75,-185,-405
23,2054,-154,1017,304,169,-6,-178,-295,-319
53,1785,-19,566,178,161,29,-121,-317,-818
-570,1574,227,154,108,110,14,-73,-261,-1157
-782,1506,548,68,27,21,-2,-45,-125,-743
-327,1210,803,61,-5,-24,20,-6,7,-249
5,924,582,-445,-296,-180,-46,0,99,126
234,1051,93,-936,-572,-290,-102,30,207,504
787,1112,-140,-823,-424,-133,17,166,353,928
721,1081,-76,-430,-116,116,229,304,403,958
497,1081,-55,-179,39,219,286,282,270,586
863,1175,-184,-245,-105,-28,-27,-53,-79,248
1312,1246,-317,-376,-253,-273,-337,-331,-256,74
423,1221,-298,-408,-269,-312,-383,-291,-73,131
-706,1147,-122,-350,-167,-176,-256,-131,127,485
-552,1074,91,-117,77,99,-17,76,265,1020
-224,1004,142,160,201,167,33,83,217,1015
-143,941,6,272,237,126,-22,28,19,505
172,867,-27,290,177,33,-84,-18,-125,-121
1083,791,102,338,-70,-176,-275,-209,-378,-796
1027,684,155,205,-248,-235,-299,-246,-489,-935
-186,439,5,49,-180,-117,-143,-93,-295,-627
-512,172,-273,28,43,69,38,28,-105,-229
-796,-64,-566,-26,190,191,149,106,87,116
-830,-374,-364,266,388,240,169,77,63,25
-446,-83,63,637,410,122,1,-98,-131,-67
-95,386,-140,122,209,68,-41,-76,-86,149
184,521,-216,-547,49,59,-2,-5,2,88
-88,574,-3,-497,-31,61,53,38,23,-434
-667,570,35,-259,-18,158,223,290,323,-335
-536,578,195,-194,-202,27,136,263,323,-187
-19,567,266,-281,-373,-102,-17,87,123,-114
279,531,273,-128,-283,-99,-64,-9,-23,-83
9,475,318,160,3,121,128,108,-48,-430
-313,359,387,326,211,286,276,212,-9,-764
-106,103,383,279,132,185,161,161,91,-399
-80,-275,179,53,-17,43,34,99,166,111
-234,-663,14,-169,-150,-66,-56,17,46,47
-114,-1031,-6,-232,-206,-143,-140,-78,-74,-107
201,-1325,-86,-245,-246,-243,-250,-171,-31,235
455,-1376,-329,-299,-303,-371,-369,-244,101,805
747,-1283,-466,-73,-228,-386,-381,-237,189,1046
895,-1045,-276,580,150,-148,-210,-104,218,1043
261,-703,-64,1059,565,229,138,176,338,943
-234,-216,299,1117,614,372,246,148,71,231
-75,293,575,658,409,265,90,-104,-313,-509
-736,570,208,215,182,67,-130,-347,-544,-1018
-637,717,-173,293,261,59,-144,-325,-444,-1189
569,746,-187,281,187,-61,-159,-217,-205,-511
917,732,-379,-173,-165,-274,-243,-153,-44,457
896,710,-423,-739,-477,-309,-206,-38,-32,805
746,604,-19,-873,-644,-450,-318,-122,-122,956
651,366,339,-913,-743,-493,-306,-55,206,1411
338,-141,48,-1047,-712,-335,-122,106,376,757
-196,-913,111,-517,-327,-42,79,180,179,-290
-1164,-1813,404,101,184,319,347,280,79,-895
-1135,-2262,466,283,448,513,479,313,2,-1159
-149,-2023,435,279,350,344,289,104,-187,-842
-325,-1962,140,208,204,192,155,-37,-329,-803
-765,-1807,-80,119,155,172,145,-40,-303,-768
-480,-1082,-115,88,177,126,94,-91,-256,-587
-500,-576,-51,140,267,133,102,-56,-152,-463
-561,-424,-14,152,390,245,144,30,-43,-357
75,-152,-74,-90,284,232,120,30,-4,-120
595,138,-82,-82,200,179,59,-19,-31,32
474,-22,-330,-135,-89,-46,-120,-158,-127,10
87,-649,-392,17,-338,-270,-291,-277,-176,6
129,-1331,59,377,-204,-263,-263,-220,-65,245
47,-2187,489,487,-67,-68,-56,3,187,614
71,-2898,179,136,-40,2,35,92,317,849
-64,-3382,-369,-252,-73,-31,11,123,325,698
-520,-3941,-458,-336,-143,-115,-63,97,304,527
-825,-4600,-313,-138,-22,-55,9,154,365,481
152,-4819,-286,-258,6,60,182,332,531,720
1779,-4347,-384,-522,-159,-78,88,183,433,801
1870,-3925,-222,-274,-109,-57,17,-10,115,331
-101,-3456,89,186,-97,-141,-176,-307,-427,-303
-1137,-2780,304,181,-258,-395,-460,-556,-652,-33
-119,-2188,569,108,-307,-325,-335,-393,-428,226
214,-1867,374,-7,-69,37,65,0,-123,-267
-975,-1844,30,25,281,393,432,384,65,-979
-1457,-1718,103,243,470,496,499,475,8,-1333
-455,-1478,298,349,407,368,364,413,21,-836
504,-1386,238,284,227,157,170,263,101,-23
694,-1825,31,167,138,31,51,180,233,536
682,-2479,-37,-124,-31,-94,3,133,389,633
555,-2947,-78,-339,-250,-273,-141,-60,265,343
234,-3368,-3,-98,-258,-300,-201,-224,38,322
47,-3692,114,140,-140,-171,-90,-202,-54,384
-161,-3854,97,39,-71,1,65,-120,-186,-107
-245,-3761,86,-176,53,189,204,-29,-251,-423
-266,-3559,180,-151,201,285,259,-17,-320,-676
-127,-3051,48,-88,139,111,73,-146,-352,-793
-172,-2296,-105,77,138,-9,-56,-195,-275,-786
-132,-1751,-259,185,212,26,-8,-99,-94,-392
6,-1306,-241,255,225,35,22,-23,100,204
476,-566,-109,350,172,17,25,-4,187,586
796,190,-24,255,125,67,85,86,265,915
-36,693,-241,-112,0,24,38,29,131,587
-562,950,-489,-454,-325,-239,-231,-255,-241,-164
-270,760,-222,-334,-485,-439,-449,-454,-371,-205
216,18,164,-229,-570,-494,-460,-365,-109,208
464,-1012,373,-317,-586,-450,-348,-144,218,219
927,-1667,651,-116,-338,-285,-189,10,325,140
810,-2232,301,-283,-236,-174,-78,117,415,527
15,-2691,-120,-410,-184,-31,61,187,287,535
-745,-3008,-134,-189,79,244,294,265,25,-128
-412,-3059,-68,51,312,448,459,362,-25,-473
-18,-2786,26,213,416,513,481,360,-29,-595
7,-2172,140,301,397,443,391,310,10,-656
-162,-993,58,223,192,236,190,186,13,-579
-596,650,-13,85,78,87,40,70,-19,-133
-849,1866,-229,64,106,-50,-138,-100,-97,134
-571,2492,-335,177,167,-77,-176,-139,-67,358
-369,2600,-310,218,185,-12,-124,-113,-56,189
345,2643,-176,16,41,-84,-179,-185,-53,115
894,2591,-82,-96,-166,-138,-195,-172,-10,429
800,2436,-88,-113,-261,-75,-60,-10,130,586
85,1847,-202,-99,-194,53,132,181,291,360
-561,1100,-264,-96,-184,95,192,201,212,-60
-985,357,-191,-104,-104,167,249,169,105,-273
-631,-150,-88,-110,-77,35,80,-3,-49,-250
-29,-183,-43,-140,-126,-153,-149,-162,-131,-175
344,100,98,43,-55,-176,-210,-211,-132,-125
266,214,195,209,-1,-135,-140,-177,-32,139
8,414,164,90,-84,-113,-62,-87,99,311
3,847,76,6,-88,-105,-91,-98,29,240
-23,1241,80,8,-15,-27,-11,-9,43,258
-50,1512,48,-119,12,22,51,83,68,175
-15,2204,23,-37,152,156,113,159,-50,-385
-179,3024,-49,208,225,159,70,118,-222,-765
57,3251,-175,275,181,58,-38,-14,-314,-679
16,2928,-133,387,338,78,-68,-141,-386,-814
14,2550,-159,432,424,38,-134,-226,-377,-570
244,1911,-14,338,271,-137,-299,-315,-171,127
613,1147,176,-43,-65,-276,-367,-307,14,498
813,455,155,-231,-88,-99,-78,-21,305,650
167,-482,505,18,-63,12,129,195,413,488
-296,-1147,645,65,-199,-43,120,178,280,326
216,-979,357,-142,-338,-134,32,70,187,637
-406,-734,113,-218,-267,-39,68,60,78,322
-755,-128,2,-267,-171,56,136,68,-71,-400
-209,738,-20,-267,-67,105,168,68,-150,-710
34,1349,64,-125,91,182,194,73,-160,-661
-6,1900,46,-53,111,173,165,83,-142,-439
-308,2407,-52,-66,46,105,106,96,-76,-225
-25,2997,-26,-10,27,72,103,173,41,25
331,3330,97,167,105,124,133,255,171,309
243,3310,105,261,198,150,99,175,70,0
396,3356,-33,201,123,-35,-145,-83,-98,-419
339,2947,-114,224,105,-66,-210,-166,-70,-350
429,2306,-333,110,295,82,-75,-105,-32,46
552,1761,-563,179,495,169,24,-28,86,682
-327,859,-557,392,593,228,76,52,274,1045
-981,-163,-611,339,511,302,177,210,412,925
-868,-480,-662,-32,8,36,23,68,219,317
-152,-212,-191,-3,-462,-423,-424,-378,-220,-216
360,123,227,-134,-732,-595,-586,-536,-438,-624
395,216,573,-161,-554,-369,-310,-222,-183,-472
269,400,701,-233,-435,-277,-193,12,117,-98
-549,393,799,-276,-366,-204,-79,87,165,-279
-798,608,803,-268,-219,16,136,159,96,-240
-284,1133,302,-406,-162,95,191,171,116,377
123,1520,-161,-463,-175,2,81,69,81,570
-117,1513,-187,-279,-63,21,56,35,-33,96
-406,1186,-136,-78,104,167,158,65,-155,-640
440,1027,29,-13,94,138,106,-10,-264,-841
1346,654,331,235,52,52,7,-70,-254,-546
1021,-187,455,378,96,61,26,6,-98,-247
-229,-1230,244,169,149,88,78,70,-5,-239
-1213,-2187,-13,-63,121,106,140,125,70,-220
-879,-2913,-254,-57,31,70,162,143,139,-44
62,-3138,-379,-54,-74,-50,58,22,89,220
288,-3020,-347,-61,-93,-91,-7,-38,55,568
-15,-2994,-328,41,44,1,23,29,82,474
304,-2630,-93,216,117,4,-33,-52,-35,11
508,-2053,-72,248,132,-16,-94,-125,-97,-210
317,-1518,-92,469,317,92,-32,-64,-76,-152
389,-763,-286,244,226,63,-46,-70,-59,85
755,-73,-425,-87,-46,-118,-167,-118,34,278
749,309,-548,72,-278,-251,-260,-132,114,453
187,321,-396,641,-224,-265,-249,-73,196,587
-456,264,91,515,-357,-477,-413,-186,131,637
-470,170,176,-354,-660,-677,-581,-281,88,746
-139,-429,121,-615,-455,-365,-269,-51,200,758
-378,-1464,149,-370,54,124,151,193,154,148
-222,-2350,497,-206,407,479,446,354,127,-250
-165,-3011,574,-167,555,660,625,440,86,-517
-428,-3663,194,-319,447,598,602,418,63,-498
-697,-4123,-131,-398,251,387,435,304,32,-329
-462,-4199,-114,-258,138,191,241,206,34,-343
-126,-4040,-9,-80,128,80,135,122,30,-280
17,-3592,14,142,288,67,62,12,-54,40
125,-2939,116,308,386,120,42,-70,-172,-129
218,-2286,170,251,331,146,16,-105,-253,-695
330,-1434,-6,-48,81,74,-25,-107,-258,-869
212,-545,-189,-216,-154,14,8,-55,-211,-700
76,148,-191,-55,-163,-48,-4,-65,-174,-372
41,413,151,126,-177,-77,-33,-37,-39,-18
-375,322,299,110,-133,-14,53,59,94,-16
-396,69,187,41,-107,0,84,86,122,-137
280,-61,41,-68,-147,-70,24,48,156,31
737,-110,-99,-259,-285,-216,-121,-31,181,409
1090,-404,-74,-301,-360,-306,-227,-117,144,573
1270,-509,21,-162,-243,-212,-153,-115,58,502
557,-730,-95,-146,-203,-209,-184,-185,-55,465
-250,-290,-323,-182,-202,-246,-250,-205,-47,693
-422,719,-482,-113,-176,-229,-253,-126,70,969
-223,951,-254,184,43,-52,-95,28,147,792
-220,953,55,491,235,118,42,98,55,-22
-637,1341,49,439,267,219,124,82,-106,-842
-552,2127,-242,77,250,175,41,-55,-127,-656
-319,2906,-387,-39,407,262,87,-33,14,37
-161,3410,-359,-64,463,374,205,83,137,251
81,3739,-112,29,221,241,104,-22,-75,-68
-460,3509,199,259,-103,-87,-157,-241,-267,-422
-312,2898,359,224,-422,-241,-164,-217,-227,-473
15,2099,182,54,-458,-206,-58,-103,-57,-25
142,1192,87,-59,-358,-214,-89,-116,46,518
33,146,155,-159,-305,-212,-83,-72,27,507
-255,-947,178,-229,-214,-146,-24,74,-10,330
-518,-1875,206,-145,-36,50,150,348,49,52
-54,-2271,209,-117,27,123,199,437,38,-363
406,-2402,77,-156,-8,31,77,319,86,-174
662,-2415,-227,-208,-23,-71,-52,115,184,524
912,-2329,-252,123,288,120,88,98,277,869
314,-2209,-123,437,444,325,247,149,296,500
-44,-1833,-213,366,248,188,89,-37,80,-175
369,-1083,-174,98,-148,-200,-258,-320,-182,-523
420,-345,167,-62,-409,-483,-463,-451,-303,-775
284,110,380,25,-363,-439,-405,-348,-180,-381
280,72,404,245,-19,-172,-205,-200,-58,76
97,-438,275,516,490,236,139,0,-111,-94
-398,-1112,232,642,732,477,409,155,-232,-717
-515,-1647,58,210,375,237,217,-8,-356,-962
-570,-2484,-56,-227,-62,87,154,3,-240,-763
-626,-3112,34,-194,-222,27,151,62,-112,-455
-474,-3445,242,-43,-212,-34,82,45,-26,-52
-732,-3870,174,-199,-151,-27,62,33,34,107
-496,-3979,81,-331,-70,59,111,81,76,-19
137,-3812,-84,-251,-54,66,101,109,120,61
139,-3618,-284,-239,-216,-119,-57,25,156,363
299,-3111,-329,-404,-377,-285,-210,-48,218,663
517,-2370,-316,-399,-349,-289,-228,-37,305,880
383,-1628,-146,-150,-135,-123,-88,25,277,600
0,-703,-59,37,38,34,33,79,179,336
-890,92,-237,59,165,124,118,106,85,36
-982,626,-313,78,320,155,88,-25,-212,-494
-49,908,-231,-2,340,143,1,-100,-258,-281
142,742,-191,-66,331,230,119,53,-6,91
310,660,-177,84,188,202,152,164,174,445
457,320,-96,220,86,98,88,161,271,1019
506,225,-69,227,-44,-86,-93,-10,164,1228
397,103,-205,70,24,-14,-33,-32,50,390
219,-515,-207,187,247,161,120,27,-64,-494
123,-1058,-52,349,282,188,106,16,-148,-708
-12,-1405,270,121,70,35,-2,-54,-174,-648
-214,-1313,428,-271,-198,-182,-144,-169,-252,-393
-499,-971,456,-215,-334,-267,-189,-219,-255,-246
-213,-588,533,129,-247,-233,-156,-153,-153,-378
47,-177,346,247,-112,-70,2,40,0,-560
42,278,232,275,-11,9,52,47,-37,-734
-91,773,160,254,12,9,28,1,-42,-575
-135,1152,-18,124,-54,-59,-42,-32,11,-105
90,1138,-46,46,-136,-121,-105,-82,28,195
312,821,-8,-103,-130,-91,-103,-84,4,264
-4,265,-114,-178,-18,-42,-128,-97,-75,87
-82,-507,-51,-79,122,68,-18,-42,-91,-107
46,-1443,203,-28,224,243,198,115,-43,-87
67,-2090,260,-52,180,166,141,56,-114,-242
219,-2613,102,-63,156,72,75,5,-156,-384
252,-3199,-2,-100,40,48,92,62,-57,-198
236,-3605,-115,-199,-9,74,151,169,182,267
208,-3464,-334,-391,-44,7,74,127,150,312
146,-3138,-440,-441,-39,-48,-30,18,52,298
284,-2649,-462,-451,-124,-140,-125,-66,143,814
373,-1927,-449,-521,-343,-307,-259,-216,189,1271
-136,-1287,-463,-169,-123,-214,-231,-280,-13,719
-623,-569,-293,373,250,-20,-106,-221,-261,-278
-638,214,220,649,509,198,91,-26,-223,-684
-479,685,459,505,417,268,196,130,-38,-612
-356,931,464,262,120,81,30,31,51,-233
-303,1163,155,-186,-282,-111,-94,21,230,399
-196,1004,-156,-482,-409,-139,-95,79,274,682
310,605,-206,-508,-451,-242,-194,-60,61,565
1101,242,-123,-382,-317,-214,-164,-85,-81,277
941,-380,103,83,24,2,60,114,-65,-35
89,-1068,173,318,162,98,162,259,128,-27
-179,-1452,-35,50,-29,-24,53,183,213,522
122,-1637,-174,-132,-202,-120,-40,55,207,913
-43,-1720,5,127,-34,9,46,9,20,470
-456,-1629,118,237,36,35,38,-57,-138,100
-512,-1281,16,25,47,54,58,-43,-121,-238
-85,-666,120,17,132,93,70,-65,-175,-931
254,-112,196,117,210,155,126,-25,-136,-1112
441,682,143,66,169,121,84,-39,-133,-761
-93,1283,16,109,163,146,78,-18,-126,-553
-580,1530,-100,149,132,113,11,-67,-197,-572
-327,1696,-33,161,76,42,-57,-91,-165,-457
97,1887,-86,-47,-57,-34,-85,-80,-27,-112
449,1659,-145,-247,-236,-170,-154,-102,73,279
595,1152,-119,-279,-365,-289,-204,-154,12,328
634,331,-90,-245,-296,-211,-123,-96,-32,191
263,-1328,-28,-78,-81,-40,-4,27,20,181
-97,-2453,35,95,109,87,93,161,87,310
-99,-3235,121,423,297,198,191,273,111,367
-205,-3394,-70,188,118,109,163,307,250,554
-489,-3031,-349,-284,-185,-131,-38,104,205,622
-792,-2744,-295,-116,-122,-122,-89,-39,19,202
-646,-2196,-239,100,23,53,51,10,-64,-468
-37,-1315,59,291,212,137,92,-26,-192,-1000
-20,-665,438,323,224,155,94,-34,-177,-798
243,114,622,84,88,85,21,-72,-165,-160
603,987,502,-89,-28,-15,-60,-101,-126,437
301,1314,246,41,74,69,8,-31,-61,471
-68,750,232,209,237,217,145,66,28,226
-46,215,224,211,233,218,153,75,76,260
-142,-404,41,111,90,49,-17,-68,-57,129
-778,-1383,-277,63,86,-74,-145,-169,-154,-270
-637,-2141,-306,299,381,-3,-92,-133,-60,-283
159,-2656,-217,373,340,-19,-112,-101,58,175
736,-3173,-386,159,162,20,-21,33,194,425
381,-3515,-388,137,-43,0,59,116,177,359
-186,-3348,42,79,-387,-372,-247,-173,-68,258
401,-2875,222,-261,-566,-644,-527,-368,-133,351
929,-2380,112,-602,-640,-603,-494,-319,-55,55
225,-2144,46,-697,-425,-201,-99,11,97,-375
-478,-1866,99,-479,-146,60,127,214,149,-280
-301,-1313,155,-221,74,169,207,304,284,391
224,-320,64,-197,75,136,169,241,305,879
399,613,-276,-494,-153,-16,16,34,72,708
-80,1062,-332,-540,-218,-46,-36,-74,-135,-101
-475,1574,-89,-83,-9,50,7,-97,-339,-1060
-407,1504,107,248,149,119,85,-56,-343,-1183
-251,877,129,209,207,159,168,45,-158,-739
-345,379,39,26,27,33,70,18,-37,-386
1,30,36,49,-121,-58,-14,-35,-64,-227
350,-70,102,137,-91,-53,-47,-73,-162,-149
252,14,-5,288,64,48,44,-7,-123,-106
126,-57,-253,183,69,99,165,134,134,207
347,215,-155,16,-173,-98,24,59,221,512
741,598,79,11,-198,-164,-47,0,181,605
791,1010,151,73,-1,-56,16,36,155,397
6,1459,206,6,165,142,190,160,148,178
-1146,1677,109,-201,140,217,251,206,114,-57
-1244,2152,-27,-244,126,277,270,220,41,-394
-807,2393,79,37,278,402,355,285,125,-313
-593,2171,66,143,217,294,222,183,118,-16
-600,2210,-157,96,93,123,38,-28,-150,-280
-287,2278,-199,88,33,16,-66,-166,-302,-466
-5,1857,46,142,61,-29,-120,-198,-208,-6
416,1233,74,72,-9,-74,-158,-206,-160,199
698,738,-53,-6,-67,-80,-139,-174,-127,11
651,203,-144,-45,-34,-47,-115,-152,-132,-4
410,-399,-107,-15,24,64,25,-17,26,217
243,-429,-155,-83,-10,99,91,82,182,483
46,262,-383,-200,-67,-19,-25,26,210,591
-339,752,-516,-222,-113,-145,-162,-69,111,312
-350,1463,-383,-69,-108,-208,-235,-107,-69,19
285,2608,-100,147,-61,-198,-220,26,87,356
515,3033,265,408,144,26,-3,263,313,451
88,3052,392,570,337,244,199,339,245,6
-338,3695,317,377,320,224,146,183,-4,-525
-709,4257,201,248,258,149,40,9,-196,-760
-615,4369,-54,85,125,-26,-144,-174,-197,-357
-294,4011,-272,8,221,-8,-143,-197,-195,-293
183,3766,-84,209,344,104,-21,-108,-210,-483
851,3663,128,220,302,21,-75,-131,-131,198
1049,2972,251,215,160,4,-47,-46,86,880
493,1845,195,75,-122,32,15,67,225,758
-533,846,35,-110,-244,81,94,125,200,26
-837,309,-112,-274,-349,28,101,116,144,-459
-452,347,-40,-286,-395,-192,-59,14,70,-248
164,705,252,-139,-415,-363,-244,-117,-30,282
745,1083,556,-133,-428,-305,-216,-120,-114,92
1074,1830,510,-210,-296,-67,10,9,-97,-358
355,2499,292,-154,-87,121,194,110,-14,-422
-518,2495,47,-230,-89,58,97,23,-47,-403
-551,2825,-115,-314,-161,-45,-21,-74,-116,-201
-69,3232,-172,-247,-146,-39,-7,-70,-115,158
-195,3407,-160,-154,-85,18,54,3,-95,362
-574,3256,-141,-68,-26,38,69,50,-83,321
-448,3087,-41,35,21,36,42,75,-54,122
29,2844,-87,64,58,3,-21,99,42,-118
433,2343,-214,92,147,-7,-85,9,-45,-322
595,2063,-320,180,205,-65,-187,-163,-168,-143
572,1402,-322,254,185,-179,-292,-323,-211,168
771,640,-220,277,155,-124,-197,-255,-41,488
486,266,-39,92,-35,0,-6,-33,209,803
-445,159,120,51,-252,-82,-18,2,212,712
-746,106,44,-19,-440,-197,-82,-7,103,421
-739,275,-10,135,-291,-156,-54,50,138,310
-878,472,124,335,-45,-13,77,210,365,600
-303,1053,167,119,12,43,103,190,259,271
383,1945,4,-203,-10,40,63,84,4,-487
276,2592,45,-250,68,132,114,30,-150,-914
178,3255,163,-170,165,156,89,-33,-157,-663
241,3539,28,-335,104,74,0,-27,-49,-347
77,3198,-170,-397,99,85,11,-8,-65,-489
-13,2182,-160,-306,130,156,91,40,-58,-430
-487,-170,3,-167,116,220,224,174,47,-500
-572,-1388,216,210,158,243,272,213,80,-533
133,-1956,516,544,147,131,130,90,43,-163
631,-2538,547,343,23,-21,-13,-69,-31,73
391,-3222,332,199,19,-42,-37,-90,-65,188
64,-3757,100,175,63,-11,-12,-54,-71,210
21,-3922,-60,-23,70,8,39,-56,-131,-90
58,-3779,-170,-155,59,-5,7,-45,-72,-161
162,-3357,-132,-26,213,31,-4,10,-16,-112
0,-2487,-175,285,365,116,21,-28,-59,-63
24,-1793,-336,54,156,36,-31,-94,-135,-276
-121,-1121,-419,69,167,63,-15,-56,-46,-216
-168,-751,-310,210,226,176,107,39,37,-31
220,-453,-217,47,104,79,55,-34,-14,204
163,-465,18,-160,-244,-55,-28,-64,13,250
-288,-852,312,-196,-397,-109,-58,-33,85,143
-249,-1482,304,-366,-515,-263,-180,-110,69,235
-81,-1912,183,-422,-355,-121,-31,11,164,540
-438,-1998,39,-278,-78,49,104,91,131,494
-484,-2436,-64,-217,-40,-43,-16,-25,-6,182
-184,-2897,-205,-294,-138,-130,-78,-56,-3,120
15,-3125,-234,-195,-258,-210,-136,-93,-99,-278
406,-3062,68,237,-168,-242,-200,-116,-158,-477
763,-3014,182,309,-158,-251,-221,-42,23,209
445,-3134,30,-17,-249,-258,-173,38,183,625
434,-2810,-50,-320,-340,-331,-204,-49,186,524
718,-2165,-203,-497,-377,-336,-218,-74,285,738
-80,-1707,-466,-536,-264,-174,-50,79,478,698
-681,-1262,-409,-292,-54,-7,37,75,294,0
-293,-792,-335,-110,81,86,82,71,64,-253
100,-655,-191,158,280,215,202,130,-70,-129
475,-714,233,376,330,182,102,-59,-343,57
464,-1084,498,276,156,53,-48,-209,-450,-85
277,-2011,420,168,86,106,62,-26,-238,-365
-214,-3070,218,156,114,213,241,175,-9,-272
-432,-3607,123,182,-9,24,63,-24,-174,-402
350,-3768,137,48,-169,-158,-101,-229,-373,-650
704,-4152,68,-54,-93,-99,-70,-235,-419,-789
370,-4587,85,48,94,84,104,-62,-222,-676
-403,-4998,115,261,332,324,355,242,155,-376
-830,-4662,-93,218,371,333,331,291,285,118
-726,-3752,-151,134,310,242,221,199,252,477
-291,-2759,78,650,418,217,184,144,257,518
-144,-1691,306,1007,429,191,168,147,253,284
-761,-659,419,756,89,4,28,3,55,-36
-900,402,418,465,-72,-157,-133,-196,-217,-333
-500,1246,161,386,82,-142,-204,-288,-432,-595
153,1669,-317,-79,105,-108,-194,-235,-415,-369
614,1732,-464,-510,-21,-77,-139,-106,-171,9
299,1112,-290,-465,-117,-37,-86,-31,-56,-47
27,-47,-96,-299,-20,68,43,85,68,-64
-213,-863,-33,-358,-85,59,91,120,176,-87
-483,-1238,-54,-327,-57,47,63,22,11,-447
-401,-1395,-36,-230,5,29,38,-8,-51,-181
-53,-1158,-115,-176,-7,17,58,72,82,374
216,-722,-297,-133,20,71,118,163,187,444
408,-176,-350,-142,60,80,107,131,138,101
387,276,-249,-155,-32,-11,6,27,21,-241
417,1018,126,-38,-72,-55,-9,5,33,-75
477,1774,514,-118,-118,-98,-32,-15,63,200
652,2507,453,-173,-124,-92,-25,-48,0,49
287,3233,76,10,-8,-76,-31,-38,9,14
-591,3876,-214,58,-62,-162,-157,-119,19,-19
-682,3821,-400,-159,-89,-105,-153,-103,62,69
-4,3593,-379,-286,-120,-64,-99,-101,30,140
669,3233,-8,-171,-134,-14,-27,-43,86,247
407,2329,242,-43,-1,104,106,74,167,198
-2,1517,192,-37,50,151,152,82,92,-11
-165,1021,114,-57,34,77,101,75,75,15
-196,450,-9,-157,-153,-124,-67,29,22,198
129,100,-207,-361,-339,-313,-238,-47,-44,426
295,-29,-303,-490,-357,-381,-293,-72,-81,215
-285,-303,-225,-321,-178,-263,-197,-106,-240,-551
-578,-433,-24,-106,-14,-37,13,-35,-237,-596
-254,-85,354,297,84,74,79,-2,-84,-112
-28,701,671,710,163,75,-1,-65,-55,91
-207,1198,554,513,206,180,126,56,-14,-17
-322,1507,41,145,226,245,220,169,59,-239
-98,2080,-433,-52,65,28,11,34,7,-196
-37,2395,-347,-20,21,-57,-113,-25,27,-33
259,2077,-72,20,107,121,60,146,200,105
302,1413,88,106,139,261,227,295,359,389
-103,715,-30,151,39,179,180,274,361,630
-172,6,-388,-105,-34,111,121,189,182,511
-70,-619,-424,-213,11,59,41,25,-73,192
-92,-1207,-172,34,136,61,8,-53,-90,191
179,-1710,224,251,145,29,1,-88,-62,269
342,-2147,281,251,90,-43,-87,-163,-134,-121
342,-2381,68,137,132,13,-67,-138,-167,-468
172,-2430,-40,80,170,61,-5,-78,-145,-516
66,-2098,-32,345,333,121,62,14,-54,-540
382,-1389,-178,367,279,3,-19,29,124,-45
339,-903,-229,21,-4,-236,-194,-93,125,262
145,-395,95,-159,-182,-325,-291,-223,-128,-60
72,368,402,-187,-246,-260,-286,-232,-284,-156
84,1223,350,-140,-281,-200,-291,-248,-339,80
343,1888,221,-137,-311,-201,-265,-235,-196,518
421,1805,0,-166,-235,-121,-106,-75,85,665
171,1365,-122,-220,-218,-136,-100,-84,66,191
88,574,-278,-334,-308,-163,-87,-31,173,91
728,-169,-367,-358,-282,-104,1,113,434,870
1151,-660,-277,-183,-45,143,253,323,483,1116
52,-1019,-86,141,170,277,352,372,360,782
-2065,-1686,212,684,436,384,374,326,115,-211
-2581,-2127,521,923,492,334,250,112,-260,-1364
-713,-1679,535,395,177,74,-8,-162,-520,-1520
619,-1446,345,-112,56,30,-44,-128,-307,-606
381,-1429,118,-279,63,57,-16,-52,-129,-93
123,-1101,6,-277,101,99,31,47,22,79
218,-545,-42,-137,171,97,15,73,57,7
256,89,-111,-95,134,34,-65,6,-8,-100
53,629,-274,-223,64,24,-29,25,-5,-98
-96,982,-381,-334,100,85,37,93,36,0
-165,1021,-424,-124,20,23,-36,10,41,62
-113,916,-265,233,-42,-114,-155,-106,3,17
-241,582,-308,183,-233,-246,-241,-164,18,307
-275,-70,-286,34,-387,-318,-280,-172,73,805
36,-686,137,-30,-233,-200,-156,-50,137,956
188,-1204,329,-147,-154,-77,20,80,171,539
276,-1788,110,-184,-132,-84,30,52,55,-176
80,-2665,133,4,75,71,144,114,-47,-793
-206,-3271,255,27,201,279,370,317,46,-728
-951,-3499,80,-41,149,310,451,391,135,-298
-521,-3109,83,66,52,129,188,156,25,-78
773,-2332,147,33,-59,-31,-27,-8,8,296
1244,-1722,145,-44,-111,-116,-106,-54,94,691
1085,-1149,248,15,-63,-93,-132,-65,46,571
486,-616,229,72,19,3,-69,-31,-55,179
-141,-28,15,-35,-62,-30,-107,-98,-141,-114
-316,-469,-196,-172,-230,-190,-257,-255,-297,-532
-399,-3828,-284,-152,-230,-221,-281,-297,-351,-719
-401,-5640,-284,-52,6,-86,-188,-246,-306,-747
-628,-5884,-388,150,327,81,-82,-170,-207,-786
-573,-6053,-414,534,516,148,-51,-150,-96,-563
-79,-5938,-468,851,616,212,1,-75,-59,-304
55,-5844,-244,797,580,382,287,239,239,98
-260,-5825,410,776,411,270,259,285,341,318
-475,-5599,1055,893,0,-69,-49,47,117,231
-421,-5158,1215,571,-276,-216,-138,-61,-44,6
-183,-4515,796,138,-219,-144,-27,-12,-97,-250
253,-3763,209,-368,-291,-135,-1,-1,-94,-266
837,-2938,-152,-817,-398,-151,-9,14,7,104
1199,-1964,8,-863,-357,-73,15,62,83,383
1066,-1028,-25,-679,-195,91,111,113,12,297
36,-244,-214,-560,-133,126,136,73,-126,100
-728,290,-188,-387,-91,113,102,3,-212,-99
-383,588,-114,-212,-39,110,98,37,-89,124
26,774,-151,-183,-99,18,38,58,93,667
-3,762,-166,-167,-125,-37,0,28,174,873
170,526,-137,9,-55,-26,11,-7,174,675
-8,-5,-155,445,198,65,53,-9,118,-39
-222,-457,-160,777,450,159,63,-54,-73,-791
15,-697,-56,595,368,22,-96,-223,-214,-703
182,-981,-392,-116,102,-191,-259,-329,-169,-168
293,-1320,-706,-561,-184,-279,-272,-272,53,487
143,-1621,-496,-347,-147,-147,-57,-76,215,540
-368,-1505,-39,74,-23,30,165,115,136,17
-823,-1055,357,112,-217,-5,128,161,34,-150
-556,16,237,-347,-461,-208,-84,93,-64,-79
-150,1078,0,-556,-487,-266,-157,125,-63,-18
-51,1858,-32,-418,-228,-121,-49,228,30,28
238,2696,118,-94,73,55,62,224,79,36
245,3283,232,69,142,141,90,111,80,60
310,3546,140,-90,-2,40,-44,-86,10,115
248,3366,-18,-237,-141,-88,-167,-233,-72,-111
-119,2709,-70,-138,-54,-96,-127,-209,-88,-399
238,1932,-18,-3,-22,-117,-103,-125,38,109
697,1117,-50,-16,-32,-36,12,28,213,744
574,355,-184,-52,-42,31,111,133,311,899
-240,-207,-215,-80,-128,-89,0,59,239,802
-919,-703,-90,41,-33,-71,-20,-7,75,181
-194,-690,83,229,255,127,94,2,-131,-399
331,-615,210,382,554,354,268,99,-162,-635
252,-411,116,305,502,260,211,66,-125,-772
-141,91,-113,176,199,-50,-41,-83,-124,-556
-638,400,-197,123,36,-85,-41,-11,36,-184
-363,946,-40,192,-55,-42,23,86,182,55
239,2206,-12,126,-207,-125,-72,25,149,95
101,3160,-80,85,-92,-47,-18,34,135,17
-675,3263,22,183,274,166,134,86,28,-256
-779,3294,304,239,565,346,230,64,-190,-702
-405,3459,165,-92,384,344,213,60,-217,-766
-24,3257,-100,-472,-4,222,180,92,-102,-299
312,2815,-78,-326,-215,75,88,74,30,215
502,2360,179,-32,-348,-113,-65,-22,17,439
603,1759,227,-30,-389,-184,-114,-27,67,556
535,1119,127,-29,-347,-174,-87,14,140,582
229,890,-13,43,-237,-195,-149,-82,-11,280
71,932,-77,50,-162,-205,-184,-136,-22,108
88,896,-41,30,-139,-251,-255,-197,-3,142
401,1251,-24,13,-14,-177,-227,-229,-73,35
387,1789,-135,-150,4,-131,-214,-232,-130,230
321,2187,-276,-166,-45,-141,-210,-152,16,806
370,2612,-307,-105,-81,-137,-160,-64,137,943
-264,2816,-106,87,26,-26,-47,31,94,302
-684,3237,300,206,165,117,92,95,-45,-697
-325,3589,460,191,187,117,82,41,-144,-960
56,3511,319,109,110,81,47,23,-73,-576
211,3160,27,-99,64,93,69,36,-41,-266
217,2730,-153,-300,-64,24,32,-13,-77,-23
-102,2338,-248,-307,-120,30,66,52,25,375
-407,1566,-172,-63,-18,99,143,135,70,276
-162,1210,-22,80,62,138,200,119,-20,-223
136,941,158,123,152,167,222,61,-100,-654
87,594,272,293,252,225,267,103,-59,-525
-210,306,39,302,155,141,206,134,52,-154
-150,434,-196,282,10,0,58,105,125,179
206,1142,-385,275,14,-33,-31,73,195,543
459,2410,-271,208,-63,-110,-143,-67,74,596
401,3310,65,324,-59,-128,-163,-137,-71,267
85,3764,158,423,135,-11,-63,-105,-133,-107
-143,4068,10,9,60,-34,-76,-139,-149,-95
-399,4210,34,-294,62,51,27,-56,-71,-180
-641,4114,168,-51,273,252,189,81,-52,-536
-576,4012,224,99,190,263,190,87,-140,-770
-375,3686,120,-128,-35,117,82,-26,-277,-942
11,3051,-22,-438,-275,-56,-22,-87,-235,-595
395,2427,-39,-478,-332,-182,-86,-63,-12,71
466,1745,74,-286,-295,-233,-133,-45,21,82
388,967,-8,-236,-279,-187,-110,45,96,39
357,327,-16,-241,-265,-140,-64,112,243,267
207,-99,-9,-208,-214,-113,-27,133,419,743
-109,-518,-80,-108,-68,6,54,142,363,722
-103,-642,-95,-15,37,74,98,74,172,558
-180,-67,-120,90,92,-18,-40,-132,-54,411
-253,763,27,328,270,18,-78,-216,-192,169
-339,1210,157,515,405,146,32,-111,-216,-163
-500,1744,178,527,370,208,122,12,-227,-484
-822,2298,155,451,186,127,41,-27,-379,-966
-716,2433,85,307,16,20,-106,-92,-478,-1242
-393,2170,1,52,-35,57,-29,8,-276,-951
-110,1696,-136,-220,-77,79,68,75,-61,-567
58,976,-129,-362,-118,82,113,104,112,-286
95,-16,120,-165,-33,130,177,146,199,-149
208,-1078,126,-144,-23,110,170,134,202,81
331,-1383,-71,-99,4,-12,39,13,110,400
300,-1726,-162,0,80,-111,-86,-114,13,528
620,-1445,-634,-100,-272,-150,-103,-145,147,586
827,-1137,-387,185,-165,-195,-212,-289,-18,884
621,-762,-95,201,-130,-218,-245,-289,-13,1077
52,-454,426,46,-172,-157,-146,-157,2,608
-448,-174,829,-21,-36,18,14,-4,-127,-704
-307,178,615,-50,89,69,39,79,-207,-1241
14,125,368,-5,187,170,164,283,33,-690
70,-149,120,-47,191,262,288,402,235,-157
25,-619,-86,-134,46,206,230,300,232,18
-62,-1059,-112,-84,-87,60,75,61,63,-52
42,-1259,57,14,-45,-8,-23,-146,-129,-177
56,-1794,176,-9,10,43,6,-112,-119,-226
130,-2230,21,-141,-76,-11,-42,-71,-38,3
658,-2369,-120,-262,-202,-138,-155,-120,-41,269
998,-2342,-197,-296,-286,-208,-213,-146,-39,473
638,-2169,-364,-322,-334,-252,-237,-139,58,611
179,-1767,-512,-259,-276,-227,-218,-98,144,568
-426,-1483,-444,-97,-89,-72,-65,-4,119,229
-767,-1329,-323,84,63,33,43,99,240,427
-836,-853,-100,208,121,29,18,93,240,586
-1017,-202,123,151,158,81,45,79,51,30
-468,439,175,-28,47,24,-16,8,-30,159
104,591,196,10,62,30,-8,-9,-8,498
29,160,256,234,136,92,63,20,-43,251
-26,-708,262,273,241,190,124,27,-78,-222
169,-1509,162,110,248,163,70,-66,-239,-826
259,-2037,-36,-36,173,96,15,-86,-254,-931
198,-2315,-98,-41,164,143,127,48,-59,-622
-63,-2519,-29,71,105,136,156,79,-45,-381
-797,-2832,-10,299,66,76,86,17,-140,-377
-1027,-2986,5,370,20,17,34,4,-94,-124
-494,-2960,57,517,132,19,-28,-19,-10,220
174,-2596,69,942,492,122,-31,-32,37,388
720,-1953,-21,872,588,126,-58,-102,-17,135
569,-1487,-293,67,265,50,-50,-81,-10,-373
131,-951,-542,-484,9,-44,-104,-103,-42,-419
-122,-187,-374,-438,-135,-78,-123,-94,-89,-290
-229,438,56,-202,-214,-14,11,79,30,-31
93,817,374,-245,-333,-96,-5,63,43,139
1236,508,265,-547,-424,-101,50,127,229,570
1294,-164,155,-470,-317,-74,42,74,153,411
726,-1011,12,-398,-293,-126,-16,8,95,245
-106,-2277,-128,-339,-256,-152,-58,-35,67,234
-368,-3559,-162,-294,-215,-168,-107,-84,37,301
-305,-4038,-18,-128,-31,-50,-2,19,164,561
-329,-4084,128,149,141,81,103,138,254,623
-223,-3772,87,181,133,72,86,138,264,539
-73,-3392,23,55,79,5,-1,67,210,646
-192,-2864,-28,-48,106,-36,-77,-41,60,370
-323,-2245,-63,145,208,-16,-82,-66,-73,-377
-591,-1468,-81,459,328,104,18,0,-258,-1138
-436,-379,-199,401,122,46,-14,23,-321,-1054
-359,705,-245,254,-50,-103,-161,-86,-371,-802
-538,1390,-81,427,22,-95,-168,-154,-388,-850
-477,1714,-63,182,21,-99,-106,-124,-241,-610
-241,1880,-13,-133,27,-52,3,7,12,-150
199,1915,16,-415,-167,-47,57,99,203,196
426,1489,42,-487,-265,-107,24,106,286,438
418,1069,74,-384,-223,-88,34,132,316,680
568,794,176,-259,-91,15,100,143,287,904
609,278,153,-197,47,121,183,175,280,1035
109,-164,48,-147,130,165,238,188,198,483
77,-235,-37,-170,70,56,129,77,27,-204
330,111,-275,-253,-60,-102,-67,-53,-21,-263
374,481,-585,-480,-188,-191,-172,-91,30,122
221,-1,-617,-531,-141,-148,-142,-46,77,308
-24,-2009,-324,-253,77,45,35,69,96,214
-290,-2817,230,34,163,202,193,146,9,-81
-422,-1972,611,215,157,236,234,102,-134,-295
-177,-393,495,342,25,31,24,-116,-303,-108
260,899,224,331,-87,-97,-130,-140,-158,404
553,1250,53,107,-72,-109,-157,-98,40,652
637,1445,1,-4,-50,-148,-206,-148,-30,349
260,1343,5,97,45,-110,-211,-207,-169,-68
122,811,27,189,174,-16,-130,-185,-185,-174
190,-105,188,318,260,40,-45,-113,-108,-51
73,-1100,307,413,177,-53,-73,-37,66,428
447,-1764,238,384,96,-89,-53,55,256,685
739,-2043,145,294,206,128,144,167,274,212
-65,-1948,4,208,294,251,173,71,24,-339
-708,-1564,-160,45,57,87,32,-118,-226,-739
-799,-1172,-5,-36,-2,68,68,-72,-188,-885
-712,-689,119,-155,-94,37,88,-5,-112,-677
-689,-439,104,-289,-89,122,203,123,4,-510
-782,-72,15,-317,-82,134,181,116,-38,-396
-767,606,-48,-239,-64,94,123,99,-62,-257
-504,1421,-78,-189,-83,35,47,93,-56,-38
-98,1868,-148,-210,-140,-62,-74,0,-184,59
293,1764,-105,-170,-134,-91,-101,-8,-213,181
242,1122,-1,-60,-35,3,31,135,-44,188
163,253,43,-5,22,30,94,145,61,-3
237,-404,-55,-52,-58,-130,-87,-88,-36,-52
108,-996,-26,29,-31,-205,-227,-247,-69,-151
231,-1562,-49,100,19,-177,-214,-244,28,-85
362,-2110,-123,15,85,-159,-184,-215,106,191
76,-2520,-287,-27,128,-128,-159,-205,37,168
-354,-2285,-525,13,39,-52,-65,-138,-41,88
-169,-1571,-535,4,-33,54,66,-4,24,78
64,-1010,-221,37,-86,105,132,87,51,-115
95,-464,44,211,-23,99,119,98,16,-241
258,-128,39,214,44,84,152,197,282,381
376,427,124,-12,68,53,121,213,452,1085
125,1062,120,-152,85,43,93,167,389,1212
-425,1467,-71,-124,12,34,70,93,224,857
-775,1560,242,152,28,113,104,64,-2,-88
-553,1537,440,117,-128,17,28,2,-145,-712
409,1350,316,-205,-371,-228,-183,-134,-149,-415
1097,892,133,-358,-474,-365,-297,-144,53,393
534,162,46,-279,-419,-368,-304,-166,72,501
-249,-739,193,32,-141,-165,-124,-111,-14,172
-699,-1787,465,557,402,276,251,68,-134,-554
-79,-2358,523,787,593,403,346,76,-215,-884
400,-2357,205,415,339,176,134,-102,-237,-531
-95,-2224,-74,70,181,21,-33,-199,-216,-217
-31,-1901,-180,-85,149,33,-15,-127,-121,-267
623,-1293,-183,-119,134,54,32,-9,22,-286
511,-880,-225,-105,120,86,114,152,192,-192
-117,-608,-345,-238,-31,43,115,226,223,-240
-453,-157,-217,-231,-160,-28,39,191,154,-193
-498,374,162,-2,-115,3,49,194,102,-173
-85,900,180,-62,-58,-3,28,148,129,106
664,1292,-22,-166,78,-38,-38,43,170,617
667,1231,-338,-180,152,-51,-115,-60,85,670
384,642,-470,-40,196,30,-50,-34,-13,349
423,-104,-185,117,69,46,-10,-14,-84,37
-124,-915,122,178,-55,15,-29,-23,-101,-299
-269,-1419,188,-13,-81,-74,-145,-143,-140,-179
93,-1645,-117,-321,-113,-174,-242,-248,-191,150
-14,-2324,-285,-535,-159,-212,-256,-322,-250,318
0,-3213,34,-308,-221,-153,-132,-208,-67,681
62,-3393,387,3,-296,-74,25,77,296,1058
27,-2919,419,-15,-444,-91,70,233,446,966
-101,-2256,298,-58,-292,-42,34,147,214,189
-335,-1727,39,-27,-27,103,61,99,75,-379
-249,-1052,-114,103,172,216,117,100,16,-534
-335,-330,-164,305,351,302,180,147,52,-489
-566,216,-298,335,346,292,166,156,34,-529
-511,218,-379,257,270,95,-28,-61,-163,-432
-622,-28,-265,194,174,3,-98,-120,-217,-357
-797,-318,-105,116,160,147,75,48,-123,-853
-331,-770,79,117,96,164,111,80,-126,-865
531,-1133,265,23,-240,-154,-156,-130,-143,54
1054,-1514,490,38,-473,-421,-387,-334,-243,188
587,-2460,598,80,-337,-266,-190,-149,-150,-208
-308,-3461,488,124,48,47,101,103,-62,-391
-470,-3840,371,133,267,252,277,240,20,-242
-8,-3626,164,-46,222,275,295,284,105,-95
-92,-3332,158,-135,151,216,227,243,107,-135
-140,-2760,176,-166,24,60,61,61,-28,-265
76,-2004,111,-141,-97,-82,-89,-128,-213,-401
434,-1313,-29,-181,-188,-147,-126,-126,-129,-186
785,-673,-115,-243,-219,-162,-118,-42,115,474
616,9,-123,-195,-160,-134,-129,-62,189,860
222,553,-171,-88,-90,-96,-141,-138,26,361
-10,706,6,183,32,-28,-104,-149,-162,-332
-60,377,127,494,161,50,-40,-92,-157,-432
-279,-1254,-19,324,134,58,-19,-65,-143,-375
-484,-2540,-197,41,67,42,-5,-56,-138,-370
-501,-3076,-93,112,124,88,88,-17,-47,-242
-586,-3452,48,237,208,128,122,-4,-2,-64
-293,-3648,-109,-44,111,-4,-14,-77,10,165
496,-3525,-136,-351,-60,-183,-203,-168,43,566
1360,-3124,-155,-498,-181,-254,-246,-166,111,726
1154,-2520,-284,-582,-360,-293,-228,-119,153,587
-26,-2102,-350,-507,-360,-148,-26,74,215,390
-231,-1326,-210,-228,-139,110,226,293,247,267
-161,-241,-81,-190,-249,-65,34,134,110,247
-320,601,-112,-241,-343,-212,-130,65,114,479
-404,1390,-108,-145,-170,-26,6,262,220,655
-57,2215,-86,-34,24,126,124,278,120,577
9,2477,-207,10,239,291,289,311,178,572
-686,2343,-219,239,423,381,356,268,129,-46
-407,2625,-195,465,395,262,182,-15,-195,-759
-267,2480,-35,533,331,263,174,-40,-237,-983
-515,1766,225,413,246,303,274,120,-63,-1085
-303,1200,361,271,15,113,139,52,-90,-1166
222,812,407,223,34,76,112,71,-20,-802
222,407,460,255,100,84,95,69,18,-459
-173,61,329,104,86,81,87,63,-4,-267
-447,-62,82,-107,-7,87,139,129,47,65
-328,245,-57,-211,-118,-30,62,44,26,403
206,968,-106,-250,-203,-167,-79,-123,-74,563
768,1891,-124,-284,-259,-290,-239,-275,-122,727
803,2584,-108,-219,-205,-277,-258,-242,-28,765
668,3065,-82,-118,-97,-169,-172,-117,98,502
595,3581,-9,-50,-42,-68,-98,-37,96,16
919,4199,38,-68,-105,-67,-78,-21,59,-35
1200,4481,31,43,-49,-47,-62,-21,-49,45
229,4417,-10,200,67,-4,-35,11,-115,-135
-974,4098,-83,139,120,26,-1,34,-116,-342
-988,3838,-221,-113,-45,-71,-72,-13,-61,-112
-360,3222,-260,-263,-213,-111,-98,-19,147,320
-183,2241,-215,-204,-209,-112,-125,-32,192,281
-290,1330,-157,2,6,-34,-87,10,179,306
-527,471,-54,261,330,225,164,203,229,188
-990,14,102,482,538,384,300,237,135,-290
-1043,288,85,465,328,268,182,59,-118,-480
-364,1012,5,234,-97,-5,-78,-161,-265,-109
803,2111,-135,-86,-539,-449,-482,-444,-416,108
1811,2995,-54,-115,-612,-564,-556,-469,-333,800
1360,3369,250,217,-215,-218,-245,-220,-163,900
-155,3606,279,295,99,123,82,59,-2,194
-1003,3898,77,139,271,294,233,167,64,-483
-861,4052,10,-24,257,301,205,139,22,-863
-218,4167,55,-164,144,180,113,58,-11,-575
736,4507,110,-195,-9,1,-13,-67,-38,4
1172,4812,77,-168,-183,-185,-158,-186,-82,230
658,4140,83,-143,-361,-412,-383,-380,-244,145
187,3115,138,-201,-429,-412,-386,-308,-180,117
334,2314,154,-59,-83,2,50,93,74,-203
-743,1363,188,218,309,379,394,323,109,-824
-1742,472,259,414,521,520,487,376,103,-865
-846,608,277,455,454,424,397,282,34,-502
107,1502,275,275,215,214,207,140,-7,96
186,2140,137,-55,-42,22,39,29,-30,364
206,2224,17,-131,-114,-28,3,43,56,407
85,2081,-125,-135,-102,0,31,86,146,203
-480,2272,-268,-241,-66,39,55,68,100,-132
-615,2785,-252,-145,80,130,129,101,110,-192
-235,3182,-370,-100,234,148,126,60,90,-185
48,3176,-499,-79,279,89,58,11,95,86
25,3119,-368,3,202,31,-2,-8,120,337
40,2576,-346,-59,56,41,36,55,158,299
555,2137,-169,113,2,57,42,92,157,197
660,2099,-39,130,-140,-136,-167,-136,-93,-120
372,2091,-171,-129,-328,-295,-300,-272,-198,-7
239,1300,-26,-190,-197,-102,-73,-52,16,209
-216,337,187,-294,-251,-67,-5,61,182,362
-536,-67,382,-261,-262,-136,-85,-8,114,291
-32,21,387,-86,-87,-71,-52,-9,18,110
470,163,130,-30,22,32,52,86,75,115
-140,261,-45,67,149,159,160,189,140,-131
-550,463,20,250,240,181,144,149,29,-579
-142,762,166,382,150,71,-6,-4,-63,-366
32,1322,174,164,-34,-35,-78,-93,-73,62
-275,1469,257,-152,-182,-128,-148,-173,-159,64
-499,1484,164,-226,-150,-83,-77,-110,-142,-262
-518,1404,50,-13,72,61,60,8,-108,-500
-373,1117,62,112,135,102,104,50,-99,-341
214,605,30,17,126,111,94,61,-25,135
686,-181,-28,-2,172,101,64,28,69,605
704,-917,-164,3,150,0,-65,-76,66,492
458,-1499,-292,66,9,-90,-145,-147,-3,165
277,-2033,-147,282,-15,-40,-41,-42,78,199
-223,-3235,19,412,94,48,79,73,133,7
-409,-4588,39,307,-55,-112,-32,-12,64,-8
233,-4008,154,298,-196,-236,-138,-76,54,245
868,-3339,23,299,-20,-140,-80,-28,34,159
564,-2642,-124,34,84,-21,6,16,-14,-118
-161,-1868,-285,-401,-18,0,-13,-19,-56,-133
-609,-956,-561,-765,-137,19,-12,6,36,109
-445,7,-684,-734,-223,-26,-41,38,165,386
222,1367,-658,-611,-434,-242,-203,-29,230,635
681,2231,-151,-315,-444,-277,-224,-101,120,563
828,2223,501,78,-231,-170,-129,-124,-89,89
13,1576,530,112,-11,63,81,-5,-161,-574
-365,832,185,-60,208,289,292,200,53,-304
-36,-55,99,12,343,322,342,235,193,188
199,-500,190,184,342,263,287,177,112,60
349,-553,178,257,95,36,60,-48,-193,-369
463,-634,48,153,-197,-246,-211,-328,-417,-427
434,-1216,-6,118,-229,-295,-263,-390,-439,-452
-127,-1904,158,328,27,9,55,-39,-115,-645
-789,-2075,73,184,91,153,203,184,146,-315
-900,-1820,-87,-13,97,155,213,255,311,368
-426,-1156,-149,-222,12,71,135,225,353,530
-209,-411,-218,-342,-67,-10,28,104,293,302
-435,238,-109,-208,77,121,112,137,248,206
-166,1234,87,-65,137,154,98,80,102,36
302,2144,142,5,121,97,2,-61,-47,42
-124,2705,33,92,202,39,-71,-149,-122,-53
-403,2896,-130,132,227,-19,-166,-201,-206,-236
-146,2766,-155,34,129,-33,-179,-196,-188,-300
151,2287,-101,-134,-32,-82,-195,-248,-235,-381
392,1740,20,16,-79,-112,-191,-281,-269,-346
145,982,79,188,-96,-59,-106,-151,-153,-12
-220,-147,16,161,-42,-12,-32,10,-19,181
-91,-1103,-69,122,-5,9,24,124,119,502
-723,-1018,-261,5,-70,-28,20,163,122,402
-801,-650,-289,-55,9,64,98,218,106,-32
149,-189,21,-44,59,102,105,138,5,-152
712,429,358,-88,-2,3,5,-73,-190,-360
598,1241,571,-114,-74,-92,-72,-204,-274,-344
162,1817,267,-231,-149,-161,-191,-256,-198,-18
-4,1791,-61,-99,4,0,-53,-69,57,184
-265,1819,-145,51,161,258,229,252,317,148
185,2376,-123,-44,48,211,164,221,215,184
193,2752,-158,-144,-161,-66,-132,-32,-71,189
150,2685,-90,-52,-112,-184,-272,-133,-197,79
430,2359,132,60,-3,-138,-187,-64,-156,-81
423,2026,41,20,7,-33,3,56,-20,-127
-320,1225,-20,41,177,167,215,171,73,-254
-949,441,7,185,440,288,259,146,47,-540
-868,45,-105,242,526,267,165,29,-29,-501
-393,-461,-275,174,464,164,62,-44,-79,-287
-76,-841,-311,59,348,142,124,50,41,-38
57,-491,-250,72,66,93,177,189,238,332
245,-24,-42,193,-235,-69,38,139,286,517
603,738,192,185,-511,-299,-202,-40,165,311
1002,1662,203,50,-538,-415,-349,-201,-12,172
976,2421,398,95,-382,-355,-325,-209,-68,262
498,3039,634,59,-249,-217,-172,-81,25,287
-82,3493,451,-156,-171,-146,-112,-48,34,82
-309,3811,79,-320,-165,-133,-145,-109,-63,-236
-79,3930,-176,-391,-257,-223,-236,-220,-231,-450
163,3703,-162,-256,-216,-184,-189,-183,-218,-279
428,3130,-166,-97,-71,-54,-45,-41,-27,270
280,2356,-138,121,95,60,75,64,83,475
-240,1645,-96,284,178,116,111,67,14,135
-254,996,29,356,118,36,39,-29,-103,-157
-51,150,329,337,94,30,85,36,-11,-260
-338,-782,348,332,242,242,329,282,175,-419
-518,-971,312,249,272,311,395,349,202,-358
-444,-747,266,69,170,199,255,225,130,-315
-663,-671,164,-68,172,221,258,219,140,-382
-704,-151,-59,-224,19,52,71,73,25,-368
-124,468,-190,-252,-87,-84,-81,-55,-13,42
-164,783,-353,-271,-75,-55,-73,-21,66,324
-122,1074,-481,-178,60,68,53,106,134,382
291,1502,-378,288,151,52,1,28,30,308
514,1567,-242,484,164,-13,-92,-47,-9,274
383,1214,-161,335,152,-28,-127,-90,-78,177
165,627,-43,206,104,-83,-180,-187,-174,219
13,-305,45,175,23,-134,-196,-185,-112,335
47,-1210,51,39,-116,-181,-210,-243,-302,-480
428,-1920,-34,-131,-198,-295,-330,-380,-437,-680
585,-2529,-73,-106,-39,-192,-231,-245,-190,-42
455,-3155,-87,-177,24,-72,-48,-4,161,548
97,-3618,-101,-395,-130,-50,29,84,225,613
-406,-3687,-51,-480,-295,-37,82,92,132,395
-745,-3680,124,-233,-174,84,218,194,108,118
-227,-3312,155,-117,-70,64,181,135,20,-187
325,-2824,208,-23,-34,49,129,54,-34,-269
269,-2774,288,-23,39,148,237,162,30,-342
-202,-2950,238,-217,-42,144,243,186,91,-281
-522,-2741,90,-210,-65,71,156,106,101,-176
-175,-2264,203,75,-5,-12,29,17,47,26
140,-2130,293,129,-6,-23,-18,1,9,19
110,-2527,122,-65,-111,-73,-76,-48,-90,-141
109,-3510,-164,-181,-193,-187,-188,-148,-156,-81
299,-4361,-417,-222,-227,-271,-267,-220,-214,-60
124,-5558,-545,-143,-148,-178,-165,-132,-170,-115
-172,-6304,-520,-70,60,48,44,44,-42,-103
99,-6682,-390,79,263,191,170,104,0,-24
82,-7126,-134,356,401,211,207,102,26,14
-284,-7184,211,489,409,133,160,81,49,52
-490,-6832,578,455,322,126,170,128,131,136
-249,-6199,593,200,205,152,196,223,220,305
240,-5367,409,-93,-12,96,173,262,281,319
140,-4505,130,-265,-237,-74,13,88,101,-36
74,-3693,-53,-329,-274,-147,-98,-50,-55,-127
381,-2914,35,-134,-132,-88,-96,-83,-59,99
788,-2122,142,22,-28,-3,-16,-22,36,238
654,-1609,6,-87,-38,21,3,32,139,309
-480,-1633,-198,-185,-46,-60,-111,-38,103,406
-785,-1937,-212,-16,37,-39,-106,-50,62,386
-525,-2393,-177,103,66,0,-53,-61,-45,66
128,-2817,-47,87,-34,-92,-135,-197,-240,-200
677,-3142,8,62,-127,-216,-211,-273,-249,33
763,-3567,44,-40,-231,-250,-190,-209,-135,510
439,-4019,108,-300,-300,-211,-108,-130,13,552
-103,-4372,105,-293,-161,-98,-2,-92,-29,-6
-386,-4550,57,-104,38,53,117,-5,-48,-481
-324,-4626,40,147,80,32,66,-45,-33,-516
-311,-4965,26,210,33,-48,-63,-164,-154,-528
-128,-4475,-4,141,-30,-104,-161,-252,-312,-643
344,-3686,28,-4,-22,-57,-122,-163,-228,-279
446,-2839,-24,-90,18,-43,-89,-44,-26,296
431,-1906,-115,-23,159,45,3,118,111,524
90,-1466,-129,96,328,234,197,309,222,402
-1068,-1480,-232,-102,180,213,223,304,217,84
-1843,-1563,-460,-447,-139,-3,5,54,-83,-493
-437,-1490,-325,-289,-107,-81,-118,-98,-212,-361
770,-1727,-140,63,28,-21,-55,-59,-117,-119
528,-2486,-80,237,65,70,63,47,36,92
-465,-3494,79,352,21,108,138,141,189,251
-801,-4127,381,416,13,163,218,263,325,109
-179,-4171,583,346,12,143,205,241,315,24
407,-3819,490,104,-40,47,111,107,143,15
65,-3403,45,-172,-68,-1,47,2,-58,-419
-47,-2858,-56,-135,43,80,90,3,-220,-722
224,-1925,-25,-97,61,98,92,26,-209,-507
291,-897,-34,-125,-44,36,43,-3,-94,-286
388,122,28,-83,-127,-37,-23,-66,-29,-102
522,1148,100,75,-103,-82,-78,-103,10,111
438,2152,27,122,-94,-142,-145,-170,2,259
-24,2816,-224,265,-64,-268,-299,-301,-63,237
-185,2934,-425,443,47,-264,-302,-287,-29,360
-265,2659,-376,392,98,-85,-103,-113,38,232
-283,2083,-279,75,19,12,36,-13,66,-84
-221,1609,-186,-75,-71,6,54,-20,80,44
123,1444,129,-119,-150,-28,44,-55,52,255
333,1242,346,-207,-136,-93,-8,-79,32,461
476,1230,229,-364,-216,-213,-114,-107,-15,504
604,1323,79,-429,-122,-93,5,58,40,440
252,1326,56,-293,51,137,215,337,217,350
-255,1298,145,-100,209,300,355,452,273,78
-532,1791,111,-28,251,329,323,350,81,-247
-361,2848,36,-29,168,198,142,132,-110,-427
-200,3576,-93,-11,87,11,-83,-153,-314,-773
-317,4131,-140,82,70,-45,-160,-272,-387,-918
-125,5011,-123,75,-3,-89,-176,-220,-227,-385
589,5688,-57,115,-46,-77,-144,-88,-35,243
1130,6031,71,160,-56,22,-16,64,134,514
904,6033,236,331,76,132,94,136,139,186
-95,5493,246,384,224,204,154,121,58,-266
-847,4537,119,178,128,62,20,-31,-83,-555
-644,3392,174,221,261,156,118,55,-23,-577
-631,2471,14,226,213,125,106,72,-18,-382
-665,1977,-301,-77,-94,-119,-59,-64,-58,-3
-550,1441,-342,-127,-69,-145,-123,-134,-89,30
-421,1059,-273,-152,42,-50,-95,-86,-109,-199
-109,1049,-219,-211,51,-24,-57,-9,9,-97
112,1331,-148,-252,-126,-124,-106,15,158,124
169,1795,-10,-326,-378,-297,-223,-62,200,355
279,2236,61,-314,-455,-412,-299,-142,254,804
461,2751,-93,-348,-353,-303,-204,-74,262,1015
540,3330,-236,-321,-111,-73,-27,27,186,980
81,4064,-145,-64,173,122,111,102,100,719
-170,5029,-35,0,224,191,129,124,43,203
68,5041,51,35,170,247,173,182,50,-332
52,4662,149,150,64,185,129,149,21,-346
-93,4145,259,270,10,104,56,63,-42,-322
-64,3350,287,275,13,94,59,40,-72,-529
151,2560,116,56,-23,41,29,10,-76,-587
362,1855,-49,-78,34,19,-7,-17,-27,-200
91,1163,-126,-6,188,76,16,18,50,-63
-158,461,-152,53,262,116,60,55,30,-399
-123,42,-166,-27,197,106,42,55,6,-395
5,-44,-240,-160,72,19,-35,-8,1,-114
47,-59,-155,-89,18,-42,-102,-94,-44,-35
-120,76,-7,-69,-89,-118,-137,-131,-63,102
-185,358,-10,-208,-270,-173,-135,-60,-27,264
168,721,-7,-168,-302,-112,-78,57,-43,177
660,1101,226,129,-200,-66,-54,55,-84,77
420,1087,401,201,-104,33,79,102,-8,-285
-240,887,401,99,-56,67,94,53,-100,-565
-471,595,280,36,-91,-7,0,-85,-201,-313
-436,66,148,17,-120,-78,-77,-154,-155,-3
-336,-737,-24,-77,-181,-162,-140,-171,-105,301
431,-1662,-149,-194,-260,-274,-219,-166,40,731
997,-2593,-163,-135,-205,-238,-190,-102,187,1129
813,-3580,-231,18,8,-41,-24,39,288,1128
98,-4469,-333,146,131,122,114,107,150,486
-121,-4938,-219,423,240,204,184,65,-112,-492
27,-5043,74,663,350,273,244,70,-225,-985
-631,-5124,160,429,223,116,103,-79,-341,-1287
-1030,-5033,248,347,386,66,15,-149,-337,-1158
-1065,-4602,272,362,526,170,94,6,-88,-475
-647,-3879,-95,6,355,134,119,101,57,-22
-92,-2870,-307,-300,27,-22,37,75,91,298
219,-1790,-26,-305,-239,-137,-36,33,112,587
394,-953,297,-76,-321,-211,-135,-53,129,641
341,-543,418,34,-283,-123,-88,-29,125,455
42,-555,367,-144,-124,80,63,99,131,157
-196,-615,202,-311,-34,133,97,127,113,-148
-187,-753,51,-295,-37,78,51,96,81,-204
-108,-988,26,-73,7,37,26,67,64,-59
37,-1142,-32,9,33,-44,-59,6,108,405
268,-1052,-156,-99,-73,-214,-227,-111,61,696
895,-738,-154,-83,-201,-374,-394,-265,-73,580
1397,-479,-165,-33,-106,-242,-256,-144,-51,208
1447,-243,-326,-75,-14,-37,-19,14,-74,-253
571,-79,-551,-271,-13,46,94,97,-32,-394
-899,156,-349,-319,93,139,161,91,-67,-698
-1191,737,7,-152,217,314,315,163,-128,-993
-723,1735,115,-1,197,302,306,195,-60,-732
-600,2869,205,169,164,248,247,216,20,-488
-495,3980,157,127,32,135,141,182,55,-357
86,4763,27,-55,-157,-107,-65,14,92,239
19,4992,74,-31,-151,-206,-206,-159,-17,481
134,5035,197,39,-78,-183,-259,-238,-207,228
603,4755,84,10,-46,-176,-269,-253,-261,203
647,3731,-108,70,146,-79,-153,-155,-162,195
606,2952,-213,177,304,15,-38,-13,26,348
-327,2543,-339,36,193,32,4,71,159,510
-1410,1746,-328,-55,64,80,73,143,194,431
-1127,1101,-298,-91,-97,15,29,71,77,128
-87,820,-223,12,18,93,127,131,93,-124
49,713,57,207,196,279,321,266,111,-185
-82,999,136,102,116,228,249,163,-44,-309
-213,1389,64,14,13,138,155,82,-138,-611
-161,1776,190,90,-5,63,99,44,-98,-585
-16,2230,268,101,-35,0,40,22,-32,-284
284,2874,121,22,-34,-10,-11,21,32,111
331,3416,-39,74,16,-21,-56,23,78,362
184,3615,-21,255,42,-66,-120,-14,86,393
180,3452,41,421,43,-106,-160,-82,31,328
185,3011,-104,474,42,-116,-164,-113,-11,335
159,2295,-276,140,-103,-194,-236,-199,-38,521
264,1560,-348,-205,-298,-318,-345,-284,-90,776
500,877,-239,-398,-401,-370,-341,-253,-73,492
479,-32,87,-275,-248,-209,-164,-131,-57,-191
-206,-1197,407,141,169,77,79,-2,-81,-510
-874,-2042,369,207,316,250,255,121,-51,-514
-644,-2263,46,-154,129,220,306,184,57,-390
-29,-1988,-148,-329,-57,56,160,65,53,-331
298,-1584,-28,-136,-73,-25,43,-9,59,-322
360,-1153,118,-86,-65,-126,-82,-111,40,25
449,-711,85,-48,-44,-119,-105,-131,7,420
461,-213,140,93,79,53,18,-32,14,521
-200,158,181,222,217,169,117,50,-30,4
-690,494,113,186,217,177,156,115,-57,-489
-670,755,-15,28,198,106,92,102,-157,-794
-169,729,-42,-114,7,-50,-38,-19,-281,-889
281,315,-151,-180,-120,-57,-22,-28,-132,-419
530,-285,-258,-271,-250,-163,-102,-43,191,681
850,-738,-208,-283,-319,-269,-181,-85,317,1382
954,-1254,-113,-362,-286,-201,-110,-24,301,1429
1006,-1886,114,-250,-183,-58,31,126,309,1220
1273,-2245,227,-99,-137,51,150,254,300,845
488,-2176,113,-92,-145,38,95,174,88,37
-951,-1919,16,2,-132,2,9,-48,-288,-1292
-1383,-1642,105,206,15,92,75,-88,-378,-1587
-1254,-1129,192,341,106,167,156,25,-127,-741
-869,-300,99,303,74,127,82,11,-48,-276
-162,739,-113,194,21,28,-53,-120,-107,-120
117,1641,-189,160,-38,-71,-168,-223,-230,-295
-9,2238,-176,113,40,-36,-163,-234,-327,-634
-447,2406,34,15,66,21,-108,-192,-299,-686
-436,2165,317,-114,-11,-36,-117,-167,-183,-366
174,1684,346,-267,-59,-72,-110,-81,0,95
641,830,253,-285,-66,-65,-48,11,169,399
670,-461,140,-188,28,61,106,148,294,437
342,-1628,15,-132,130,141,176,170,235,183
76,-2509,-176,-162,114,23,20,10,87,287
30,-3272,-336,-225,20,-128,-130,-115,27,645
116,-3897,-308,-144,106,-44,-47,12,104,708
-90,-4366,-153,12,233,142,147,211,215,363
-602,-4615,54,167,268,249,226,255,136,-247
-592,-4463,167,228,134,181,159,201,81,-446
-137,-3954,84,27,-155,-31,-21,51,58,-125
295,-3356,-70,-125,-264,-164,-181,-84,46,353
228,-2858,-160,-64,-137,-47,-79,-10,-9,115
-165,-2370,-177,43,47,134,104,125,13,-63
-419,-1865,-90,138,122,147,96,75,-61,-109
-199,-1496,111,157,16,-11,-83,-123,-209,-318
-157,-1488,238,20,-159,-169,-235,-268,-296,-697
-164,-1687,157,-188,-256,-205,-242,-223,-200,-462
138,-2180,131,-191,-207,-133,-136,-61,42,71
333,-2962,127,-60,-51,-22,-24,42,172,399
530,-3475,39,-20,19,-12,-37,-21,82,628
958,-3722,-168,-62,-34,-107,-142,-160,-54,725
790,-4153,-155,72,30,-50,-77,-101,-10,481
59,-4426,-33,113,92,44,51,77,174,250
-789,-4290,-78,37,106,83,76,120,82,-125
-1515,-4059,-75,180,328,203,153,130,-55,-478
-1191,-3339,-76,166,340,160,91,21,-194,-706
-212,-2272,-143,-131,121,49,-11,-63,-230,-567
216,-1414,-144,-317,-98,35,27,10,-26,-26
372,-465,90,-93,-209,-25,11,-35,-2,307
456,447,316,241,-176,-115,-85,-126,-43,389
264,711,381,315,-157,-28,-1,-34,-42,115
128,741,319,156,-98,87,119,58,-60,-158
-52,743,199,0,-60,93,128,46,-110,-260
-119,517,121,-35,-30,47,76,31,-26,72
58,-5,147,136,34,41,31,52,89,341
129,-671,191,404,68,30,0,28,74,127
52,-1276,84,327,-45,-92,-129,-98,-56,-24
180,-1728,-77,43,-145,-174,-181,-141,-89,70
40,-2195,-348,-120,-36,-28,-17,17,49,-55
141,-2281,-375,-94,63,95,111,115,148,-265
374,-2140,-126,-45,108,142,173,145,209,-11
354,-1719,-119,-150,36,59,87,80,171,330
171,-824,-40,-198,-12,-107,-86,-71,31,392
-162,76,74,-231,-146,-253,-209,-189,-94,125
-422,627,41,-289,-173,-184,-128,-128,-114,-263
-346,1392,-80,-256,-78,26,70,60,-49,-346
121,2428,95,-43,36,99,126,96,-19,-213
460,3134,242,66,69,44,46,20,-16,-129
104,3148,96,10,64,14,0,0,51,43
-201,2866,-120,-6,133,63,28,38,89,207
166,2622,-150,53,209,108,96,107,157,341
-34,2131,-105,118,244,124,99,126,112,131
-260,1814,-143,34,78,4,-18,20,-31,-110
-82,1739,-260,-155,-171,-168,-182,-92,-115,-147
445,1656,-331,-212,-254,-235,-228,-116,-44,28
627,1469,-345,-147,-201,-183,-141,-69,46,273
59,1400,-305,-37,-89,-120,-96,-96,-1,303
-461,1530,-139,187,54,-31,-70,-102,-40,403
-443,1695,-86,442,199,123,87,89,169,621
127,2297,-67,240,76,73,61,115,269,496
325,2946,-81,-150,-105,-41,-51,-5,172,272
185,3425,54,-2,143,61,9,-10,75,22
11,3941,339,313,350,229,141,58,-18,-239
-320,4356,437,190,283,264,172,75,-132,-429
-605,4543,316,-72,61,163,90,26,-261,-813
-483,4436,177,-168,-107,51,19,54,-168,-690
-101,4383,111,-171,-188,-36,-44,59,-47,-207
246,4266,99,-73,-162,-62,-61,34,-25,123
417,3706,14,153,-49,-55,-28,21,-3,333
302,2999,48,402,140,-42,-4,38,48,423
-161,2308,-19,385,191,-79,-66,-23,-27,201
-129,1758,-48,114,61,-92,-76,-84,-96,-92
-120,1274,-130,-154,-86,-37,22,-6,-39,-178
-200,1083,-207,-269,-106,26,66,51,50,-63
3,1326,-145,-294,-95,-17,-32,-36,7,169
-98,1447,-24,-263,-18,51,64,26,84,41
-193,1622,23,-252,-6,113,169,109,138,-126
-146,1989,-38,-91,-47,66,124,82,153,82
106,2611,85,340,-15,-18,-9,-44,21,187
711,3339,261,463,-67,-100,-127,-116,1,455
684,3690,253,216,-118,-105,-135,-81,57,522
-54,3488,122,71,-70,-51,-62,-47,-18,-9
-601,3268,17,-72,-71,-35,-11,-39,-109,-448
-661,2723,46,-50,-25,37,63,40,-37,-438
-330,1947,101,-54,48,122,144,110,22,-309
-46,1340,30,-107,46,111,121,93,-5,-323
185,849,-93,-142,9,37,23,0,-38,-119
378,382,-84,-154,-6,-15,-12,-19,24,129
613,114,-58,-133,5,-6,-4,13,64,230
431,-35,-5,-77,4,2,-29,-10,-4,209
117,-100,11,-77,2,6,-16,20,-35,6
-164,15,-36,-101,-19,-22,-32,8,-45,-255
-367,451,-50,-89,-3,-77,-95,-73,-96,-405
-155,1078,52,62,-83,-148,-152,-118,-74,-137
87,1718,132,285,-130,-146,-140,-96,-32,129
293,2267,102,260,-106,-101,-85,-69,-38,68
41,2472,-17,93,-59,-14,-2,-19,-14,-165
-510,2402,-124,-26,40,128,142,85,50,-134
-601,2170,-301,-161,32,106,120,45,0,-24
-24,2119,-161,119,83,11,-2,-69,-93,80
503,1687,102,434,198,49,4,-68,-84,123
417,737,166,338,209,160,119,52,64,38
-317,-182,77,230,270,233,162,93,127,-91
-663,-324,-104,84,219,113,14,-57,-25,-135
98,-174,-166,10,195,-81,-172,-216,-103,139
629,-514,29,-46,196,-131,-181,-166,-30,392
510,-776,63,-218,66,-124,-139,-83,16,192
310,-815,-23,-262,-36,-90,-99,-66,-37,-141
-46,-756,16,-202,14,61,62,52,38,-162
-251,-431,-47,-281,9,184,223,175,106,-251
-134,156,-140,-237,-8,169,254,160,73,-217
-206,980,-116,-26,131,55,105,5,-54,-186
-211,1850,-134,65,153,6,-15,-68,-110,-95
-153,2388,-243,-102,-62,-37,-52,-68,-154,-57
103,2556,-263,-186,-270,-81,-36,-32,-134,9
319,2551,1,-31,-370,-126,-53,-22,-41,209
-228,2022,295,158,-349,-137,-36,13,54,159
-686,1018,290,106,-301,-88,32,59,57,-277
-423,453,323,72,-80,104,205,178,74,-497
-185,169,316,135,90,205,265,219,125,-268
-3,-374,68,30,17,86,107,97,64,-9
280,-881,-108,-21,-69,-45,-14,-8,35,292
456,-1229,-163,41,-83,-109,-25,0,144,611
548,-1308,-176,26,-98,-123,-11,8,161,592
692,-1367,-159,39,-63,-93,-10,-44,35,210
242,-1363,-108,159,107,14,15,-27,21,22
98,-933,-61,373,224,12,-32,-11,171,338
257,-523,-74,307,150,-16,-21,92,339,579
141,-100,-311,-118,-32,-35,0,163,308,380
211,356,-396,-366,-143,-64,-28,99,189,488
351,644,102,-164,-45,17,24,86,94,189
-56,550,524,23,38,98,84,77,-71,-813
-936,301,423,-79,16,85,49,-19,-208,-1090
-543,-11,236,-135,-65,-10,-36,-134,-282,-581
-96,-609,120,-43,-170,-205,-231,-277,-315,-215
242,-1079,46,-41,-346,-486,-531,-506,-405,-43
817,-1731,197,-14,-295,-408,-441,-406,-276,-114
817,-2682,330,12,-26,-17,-29,-9,-9,-407
-1,-3569,210,-31,174,255,291,288,197,-304
-1263,-3976,-142,-93,153,220,275,291,176,-51
-1339,-3840,-189,106,188,155,189,138,-16,-10
-500,-3378,-7,267,204,192,194,92,-92,-48
-327,-3020,42,199,262,290,311,210,23,-149
-600,-2587,17,91,265,297,324,244,116,-274
-411,-1721,54,40,172,197,178,149,65,-392
33,-738,-57,-92,53,142,95,119,58,-207
224,101,-159,-213,-67,77,61,132,155,167
174,642,-192,-256,-110,8,-4,85,113,187
234,835,-70,-131,-47,-2,-64,-16,-16,77
452,749,25,83,30,-16,-78,-41,13,309
508,333,-35,142,68,-63,-98,-35,138,622
325,-330,-7,195,102,-93,-117,-73,151,652
32,-1004,-29,175,152,-86,-147,-119,60,399
-430,-1666,-195,205,333,58,-35,-66,-38,-207
-462,-2004,-204,212,316,114,33,-62,-102,-466
-267,-2056,-183,59,163,47,-12,-103,-148,-402
-140,-2062,-318,-146,-2,21,17,-11,-37,-272
87,-1687,-221,-205,-167,-21,45,80,69,-16
503,-890,230,127,-167,-118,-49,62,98,403
729,-57,398,162,-278,-182,-127,53,146,900
608,485,48,-345,-344,-174,-139,1,173,1120
135,952,-192,-419,-107,-118,-135,-108,54,675
-213,1508,-59,-83,204,6,-76,-173,-154,-231
25,1993,199,28,235,121,51,-129,-205,-662
193,1957,133,-124,-37,104,88,-65,-126,-534
-265,1342,137,-58,-290,-44,-38,-110,-144,-571
-568,538,139,-36,-377,-118,-120,-113,-125,-343
-486,-349,-94,-187,-264,-40,1,11,0,-8
-46,-1141,-67,-127,-102,37,80,101,51,156
627,-1917,73,39,26,85,85,159,61,148
809,-2680,20,138,78,95,89,225,8,-244
378,-3276,32,25,18,26,27,189,-64,-492
-100,-3767,173,-22,13,27,66,172,-40,-434
-502,-3971,160,22,72,87,157,194,36,-376
-440,-3749,92,58,46,28,65,61,9,-223
-131,-3299,-13,62,-18,-17,-40,-61,-24,-85
-64,-2803,-16,145,21,-8,-50,-73,13,-17
-101,-2243,64,209,14,-11,-69,-64,15,64
-253,-1508,16,109,-38,-37,-84,-77,-25,146
-326,-720,-62,77,-49,-51,-81,-86,-67,114
-163,-144,-5,105,-1,14,-44,-55,-66,-11
33,126,65,25,-5,33,-28,-32,-45,-90
307,284,-10,-106,-85,-45,-94,-52,3,177
351,73,-156,-192,-129,-100,-166,-61,100,726
271,-413,-233,-263,-173,-133,-161,-35,195,1103
186,-852,-219,-246,-101,-47,-46,58,217,968
-21,-1150,-280,-244,-19,34,45,100,163,607
53,-1208,-338,-57,10,-5,7,7,30,220
192,-1179,-161,353,126,0,-14,-61,-111,-468
46,-1035,184,524,161,0,-55,-129,-241,-1056
-219,-711,330,387,78,-88,-136,-208,-254,-852
-377,-165,204,92,18,-99,-126,-170,-149,-356
-469,356,291,95,75,-8,-5,-56,-8,-206
-639,767,216,128,146,107,126,45,70,-222
-353,1489,-76,-61,29,51,79,1,-8,-263
311,2546,-221,-199,-102,-76,-78,-106,-131,-237
662,3233,-81,-35,-21,-59,-85,-91,-62,-84
736,3337,-3,-40,4,-42,-63,-41,78,163
426,3108,106,-158,-45,-46,-68,-40,75,182
-226,2516,201,-215,-36,-3,-8,-16,-13,-31
-447,1882,77,-257,-8,31,42,35,-16,-108
-128,1515,-56,-144,132,163,196,134,27,-184
-57,1064,-113,-42,144,159,193,111,-10,-143
-209,-352,-5,11,77,74,99,25,-53,-50
-197,-3490,114,48,26,0,32,-33,-27,-2
39,-4617,83,5,-92,-122,-76,-72,43,220
346,-4298,-4,-28,-116,-215,-176,-116,48,277
535,-3909,30,-36,-113,-195,-145,-75,126,317
472,-3199,22,-70,-81,-44,17,53,199,286
9,-2386,-62,-60,-10,40,86,92,141,148
-101,-1491,-176,-112,-61,-41,-4,27,129,309
244,-327,-113,-83,-46,-92,-81,-58,150,683
469,915,-97,-72,-13,-117,-148,-99,175,1113
516,2024,-156,-43,78,-70,-123,-43,207,1204
405,2343,-235,204,416,101,-16,-5,98,530
-515,2440,-376,359,580,147,-20,-67,-110,-355
-1104,2666,-542,-22,261,-26,-147,-246,-398,-1063
-74,2555,-395,-329,-173,-150,-180,-310,-501,-991
747,1733,245,57,-189,2,36,-41,-238,-597
-329,855,618,687,200,236,283,258,-45,-551
-1335,454,478,614,186,180,271,282,-25,-419
-512,11,248,-57,-121,98,285,335,196,225
19,-1510,127,-453,-384,-15,190,270,306,523
-43,-5785,64,-385,-405,-118,14,64,169,495
60,-6613,65,-249,-295,-122,-58,-63,61,407
118,-5465,49,-136,-134,-43,-28,-37,46,138
208,-4330,129,36,71,116,109,29,-18,-271
449,-3086,130,104,139,155,154,21,-75,-209
-17,-1812,86,121,169,187,174,65,-6,-247
-501,-388,96,47,108,146,86,33,-64,-702
-491,635,84,34,54,70,0,-33,-121,-1010
-257,936,58,58,41,39,0,5,7,-513
62,524,-91,75,-75,-61,-74,-55,-22,133
212,421,-6,264,41,-46,-75,-82,-122,25
172,172,57,242,88,-7,-35,-66,-161,-39
191,-424,86,93,56,-33,-49,-91,-169,-107
527,-882,77,30,30,-53,-75,-77,-119,39
621,-1360,19,2,22,-43,-77,-43,-49,274
390,-1428,-24,-171,-91,-104,-123,-63,-44,347
645,-1048,8,-307,-203,-201,-204,-96,7,533
890,-530,53,-165,-170,-227,-238,-113,101,813
527,19,75,337,32,-127,-166,-88,86,598
-196,518,-223,487,212,19,-35,3,129,275
-942,1049,-489,349,315,78,2,-18,-32,-256
-1131,1915,-602,392,370,84,-72,-177,-335,-799
-691,2791,-674,446,408,132,-49,-183,-336,-629
-184,3261,-359,297,316,133,-21,-111,-182,-244
-57,3236,217,95,-29,-32,-81,-111,-52,-61
-29,2944,529,-159,-281,-148,-98,-71,94,231
14,2268,672,-248,-265,-11,89,132,273,415
35,1367,421,-478,-242,96,243,280,408,506
105,507,69,-675,-247,61,235,260,356,416
55,-149,-155,-693,-203,38,206,160,135,-1
-262,-681,-165,-470,-100,78,189,80,-27,-200
-264,-1872,-113,-270,-30,82,132,7,-123,-211
27,-2524,-94,-176,-16,59,96,3,-168,-324
203,-2566,-103,-109,-15,25,56,45,-156,-410
57,-2230,41,14,41,45,45,130,-157,-421
-104,-1617,120,79,63,98,115,233,-48,-287
-184,-1029,98,43,65,117,138,248,90,-34
27,-283,-90,-106,-28,18,37,136,136,267
280,546,-247,-227,-147,-88,-70,30,188,606
316,1136,-335,-241,-156,-86,-65,-4,221,853
79,1240,-244,-80,-6,47,78,90,273,855
-274,1053,91,185,134,134,139,93,101,441
-346,646,333,177,61,34,44,0,-39,276
-167,-106,254,27,-15,-62,-51,-82,-77,57
261,-656,115,-30,-36,-120,-130,-171,-155,-443
546,-1161,-67,-56,-33,-107,-89,-107,-49,-311
500,-1731,-240,-89,-24,-49,4,17,129,-64
360,-2179,-145,-49,52,-5,19,20,55,-348
137,-2325,31,96,134,11,-37,-81,-162,-584
-206,-2299,37,116,106,0,-86,-132,-251,-577
-269,-2081,48,70,14,-42,-83,-135,-247,-393
-44,-1615,145,1,-170,-129,-102,-126,-176,-55
260,-1212,337,229,-151,-151,-106,-123,-89,164
538,-1137,397,522,118,73,88,26,-16,54
264,-977,74,277,122,90,83,22,-57,-242
-429,-541,-238,-69,-36,-22,-22,-41,-87,-249
-361,-320,-36,-24,14,23,13,7,20,-64
108,-300,165,76,134,66,47,37,72,67
278,-377,51,172,300,92,36,-15,-2,83
-78,-710,-92,165,304,68,15,-67,-88,40
-196,-1257,-47,-47,91,54,38,-11,-45,66
-172,-1773,-177,-366,-211,-60,-60,-18,-36,31
-220,-2202,-432,-431,-350,-175,-182,-47,-65,-24
-185,-2432,-229,-146,-81,-136,-157,23,-85,-188
21,-2328,51,33,17,-139,-141,40,-121,-324
251,-1998,22,-85,-194,-192,-118,41,-73,-186
274,-1631,-11,-70,-360,-251,-157,-24,-37,50
-50,-1305,18,32,-323,-230,-168,-67,13,134
-28,-785,74,108,-205,-107,-68,22,175,350
-89,-395,164,274,14,63,88,152,270,367
-552,209,266,499,267,261,244,262,259,108
-834,1102,248,452,369,373,325,317,188,-181
-669,1789,126,177,272,317,269,262,100,-413
-329,2092,44,-6,161,218,173,185,110,-313
82,2399,-58,-102,104,149,87,128,142,78
156,2313,-220,-239,-4,60,18,40,87,336
-109,1842,-293,-293,-52,19,3,10,-19,235
-49,1426,-228,-277,-62,4,5,-13,-22,269
171,990,-58,-162,-49,-26,1,-16,62,540
322,525,223,0,33,25,47,22,91,598
336,291,214,12,27,3,22,-19,-18,262
172,471,33,-57,-71,-108,-92,-126,-177,-181
-45,984,-18,-71,-110,-144,-149,-178,-233,-374
117,1453,-31,-71,-71,-122,-115,-165,-171,-284
386,1996,-80,-75,-18,-126,-135,-163,-131,-18
373,2740,-124,-46,37,-72,-114,-91,-8,277
173,3457,-52,-73,13,-18,-56,-28,39,256
129,4335,11,-111,-112,-64,-103,-91,-95,17
142,5215,52,0,-184,-130,-151,-140,-160,95
-114,5402,101,98,-169,-104,-85,-103,-136,120
90,5427,25,68,-61,12,41,9,-21,148
212,5239,-104,60,4,39,77,72,135,479
212,4401,-225,148,132,30,66,112,280,794
183,3351,-285,167,273,111,107,132,263,554
-158,2598,-224,136,270,126,115,96,127,-298
-572,2076,21,271,194,60,34,-21,-72,-826
-581,1813,259,534,185,38,9,-88,-186,-789
-382,1499,331,649,128,-60,-79,-202,-301,-616
-75,1421,304,448,-25,-143,-135,-250,-262,-138
392,1746,148,52,-149,-105,-78,-108,-54,328
530,2167,29,-159,-157,-11,18,31,81,337
210,2501,176,-135,-94,85,105,109,99,220
157,2685,106,-299,-162,42,69,56,5,161
434,3193,-56,-569,-318,-103,-46,-38,-58,213
78,3720,-160,-584,-340,-147,-84,-27,-2,149
-312,3961,-193,-397,-213,-60,-6,48,65,-208
-360,3661,-84,-184,-6,86,95,163,92,-413
-29,3175,-58,-88,111,166,116,210,80,-259
-125,2783,-249,-125,50,126,92,208,141,-10
-262,2220,-448,-115,-51,63,101,204,176,192
-200,1820,-325,29,-61,14,59,124,133,260
87,1556,-50,72,-78,-116,-85,-65,66,374
330,1204,169,66,-78,-183,-156,-187,-15,483
19,895,212,103,55,-131,-139,-200,-114,247
-81,846,186,83,174,-54,-96,-162,-165,-47
145,859,163,84,240,46,57,-35,-49,-126
-120,846,90,47,160,77,114,32,-33,-320
-538,1143,-110,96,59,42,51,-18,-80,-371
-804,1712,-352,471,137,46,0,-17,-70,-293
-547,2208,-455,608,196,75,-17,-50,-93,-292
96,2834,-221,481,132,53,-56,-142,-183,-304
396,3230,32,212,112,174,87,-22,-119,-317
-14,3439,239,-44,37,181,121,50,-23,-180
-306,3538,519,-48,0,48,0,-50,-44,-211
154,3437,479,-233,-107,-83,-98,-151,-78,-4
384,2980,126,-416,-192,-174,-203,-204,-39,401
440,2026,-244,-354,-195,-167,-190,-151,81,838
532,865,-345,-44,-110,-87,-97,-67,175,1054
235,-367,-323,80,86,50,22,-6,141,671
-105,-1491,-400,-210,78,142,159,78,186,298
-115,-2349,-493,-492,-144,50,155,75,199,61
-51,-2899,-88,-173,-98,-3,97,39,26,-617
-78,-3111,535,277,-40,-38,39,11,-128,-910
-11,-3162,816,261,-60,-78,-10,-21,-216,-797
207,-3048,738,9,-124,-23,39,77,-110,-470
165,-2871,468,-125,-73,77,157,225,21,-339
40,-2507,215,-151,-69,82,171,223,35,-277
-44,-1915,25,-189,-135,19,68,159,94,19
-82,-1290,-25,-210,-175,-79,-77,10,57,197
18,-1052,-43,-144,-125,-58,-111,-86,-22,220
55,-1460,-89,-53,-15,44,-4,-3,49,171
-240,-2103,-86,12,71,117,107,104,89,27
-384,-2846,-34,47,72,85,79,49,-9,-171
-4,-3633,-15,28,11,0,-23,-56,-82,-109
102,-4663,20,23,23,6,8,1,85,171
205,-5959,27,-37,-23,-34,-4,38,164,341
385,-6761,9,-123,-105,-112,-53,24,238,679
320,-7035,-146,-231,-214,-238,-133,-33,270,1018
484,-6773,-281,-346,-339,-369,-262,-152,138,1008
633,-6442,-287,-296,-279,-294,-220,-141,32,745
25,-6139,-116,-86,-34,-32,-14,-14,-40,-97
-540,-5880,77,103,186,190,148,95,-88,-839
-493,-5713,141,96,168,165,98,24,-157,-932
-166,-4912,2,-18,23,52,2,-22,-141,-573
27,-3876,-114,-60,-47,-14,-54,-41,-80,-173
103,-2941,-36,1,-31,-71,-121,-108,-62,198
-20,-2488,-6,117,123,37,-71,-93,-57,356
-22,-2539,100,243,324,202,64,-14,-61,273
-242,-3107,166,239,357,224,106,7,-97,-114
-409,-3811,139,165,142,85,12,-63,-188,-499
-224,-4409,157,148,-9,-4,-17,-59,-209,-831
15,-4888,201,236,-64,-59,-65,-55,-157,-651
-16,-5278,156,209,-28,-74,-84,-48,-49,-204
-59,-5585,41,43,15,-59,-57,-5,41,31
-114,-5627,11,-41,4,-25,-19,28,108,95
-87,-5212,-32,-78,-2,-10,-2,33,111,69
108,-4411,-112,-152,-84,-81,-71,-54,-50,-74
505,-3459,-215,-199,-154,-152,-137,-147,-194,-162
591,-2636,-253,-128,-78,-71,-41,-45,-116,-33
-203,-2045,-142,3,51,46,69,85,41,-6
-656,-1336,-128,51,114,129,147,186,197,112
-421,-268,-78,63,101,142,166,178,223,419
-93,767,-21,83,106,149,178,112,192,596
16,1215,-65,41,83,130,152,83,154,483
-123,1232,-20,-33,36,108,135,97,105,-21
-185,1163,30,-58,12,106,114,95,24,-599
-40,1085,0,-58,-29,41,48,31,-24,-634
60,938,-33,-55,-61,-46,-9,-19,15,-275
442,881,-62,-45,-69,-96,-63,-80,1,-30
459,811,-107,-39,-69,-90,-79,-63,34,206
17,790,-52,36,-7,-48,-52,-44,55,308
-87,973,62,312,124,23,24,-18,60,249
-334,108,160,734,235,95,100,18,11,-31
-489,-3731,115,747,214,23,3,-80,-123,-385
-379,-5383,-32,503,201,-137,-221,-278,-275,-476
-41,-3649,-135,125,188,-222,-323,-333,-309,-214
334,-1556,-225,-13,167,-97,-169,-108,-109,202
752,247,-261,-219,-95,-39,-58,92,79,525
817,1698,-53,-282,-300,-22,1,162,163,568
505,2864,-13,-315,-385,-74,-47,49,106,467
138,3485,90,-268,-228,19,40,115,198,462
-475,3958,163,-221,-39,129,169,184,229,112
-852,3817,-16,-311,-17,145,200,144,119,-212
-703,3198,-61,-319,15,209,240,147,27,-447
-434,2747,-99,-241,66,205,190,110,-64,-725
-92,2629,-203,-191,68,42,-4,-51,-128,-477
-133,2551,-187,-53,183,-13,-89,-136,-180,-74
-217,2466,-132,-91,113,-47,-117,-155,-221,65
63,3032,-74,-172,-45,-51,-71,-105,-166,110
611,3885,45,-101,-93,-12,-19,-59,-76,32
761,4302,154,9,-121,-22,3,-31,14,-81
484,4690,234,44,-179,-59,7,-29,44,-58
322,5212,293,25,-176,-71,4,-65,-12,-66
49,5441,285,91,-8,81,98,-4,-16,-244
-220,5056,171,116,116,220,214,100,34,-246
-408,5072,18,79,80,161,177,133,88,-97
-257,5421,-158,24,-25,-2,36,119,150,195
217,5651,-197,-10,-68,-112,-43,113,210,508
490,5616,-113,-66,-179,-191,-112,87,175,665
395,4887,-79,-45,-127,-154,-105,49,136,567
132,3807,-20,177,134,-17,-25,19,83,280
152,2961,21,249,267,96,44,8,13,-2
280,2984,39,80,101,-9,-63,-138,-128,-197
15,2613,-56,-145,-134,-177,-191,-247,-196,-196
-434,2050,8,-62,-118,-87,-64,-91,-10,-52
-205,1993,139,65,-39,-9,18,18,154,150
121,2186,149,13,-117,-57,-28,-20,105,371
363,2565,64,-164,-210,-144,-116,-99,-18,576
353,3050,52,-222,-170,-165,-161,-135,-81,601
370,3601,-3,-213,-89,-98,-112,-87,10,636
291,4113,-65,-105,130,91,67,41,95,343
-725,4242,-152,-7,311,227,177,70,-66,-655
-1077,4107,-189,48,364,329,233,75,-200,-1393
-562,3894,-203,-5,235,348,256,113,-138,-1052
-227,3572,-110,52,-15,156,120,75,-79,-532
20,2986,195,284,-128,-38,0,-12,-13,-334
260,2333,334,380,-49,-16,19,8,63,-124
67,1633,321,313,89,63,52,47,102,0
-34,955,279,198,151,81,26,10,19,-223
-104,252,260,286,149,66,12,-32,-93,-441
-30,-301,178,310,62,-20,-43,-94,-116,-270
172,-507,70,186,-33,-91,-76,-135,-88,-44
226,-191,74,-10,-100,-145,-117,-166,-109,-7
183,275,166,-77,-60,-77,-68,-102,-88,-53
-22,578,121,-16,21,33,7,-12,-18,-129
-453,1008,83,23,46,56,18,-2,-42,-215
-612,1489,-15,-18,-3,4,-44,-21,-18,-148
-289,2103,-129,-89,-62,-34,-89,-11,95,225
-237,2551,-223,-176,-131,-101,-135,-31,125,365
-356,2643,-155,-162,-88,-76,-104,0,158,323
-347,2342,-68,-104,8,24,-20,46,96,39
7,1746,-34,-28,124,136,67,103,52,-26
530,991,-22,130,134,111,48,48,0,178
786,-2,-8,367,197,133,69,24,-2,260
664,-905,-2,316,131,78,19,-38,0,337
397,-1537,-205,65,-19,-125,-149,-147,-39,381
-305,-2338,-308,71,68,-129,-142,-96,-1,270
-497,-2979,-340,72,213,-3,-30,-2,45,193
-283,-2889,-376,-45,198,74,13,16,62,217
-458,-2539,-277,-137,48,102,36,14,-2,-315
-451,-1959,-167,-212,-30,85,65,-14,-111,-862
-192,-949,-148,-256,-46,62,31,-12,-109,-669
34,-86,-79,-207,11,72,55,90,71,-66
276,882,224,-223,-128,11,38,114,157,275
512,1830,201,-353,-269,-36,0,99,177,571
495,2354,78,-416,-274,3,42,120,175,625
478,2639,126,-204,-203,-13,-14,44,33,235
272,2346,184,70,-41,0,-66,-35,-126,-316
-103,1790,66,104,29,37,-33,-26,-133,-287
-483,1278,79,44,8,5,-34,-35,-131,-124
-351,963,72,-50,-31,-20,-52,-74,-152,-120
131,690,-34,-199,-153,-133,-131,-167,-190,64
458,302,-75,-223,-225,-236,-196,-233,-195,185
649,-160,-8,-123,-144,-168,-121,-149,-100,208
428,-787,54,29,46,16,78,37,53,150
78,-1143,184,210,251,218,277,223,194,-4
-276,-1177,116,174,233,238,282,261,211,-110
-673,-1292,12,52,121,149,172,168,121,-249
-562,-1153,35,63,127,154,147,132,75,-357
-204,-342,-88,57,153,133,88,78,35,-336
158,533,-120,19,139,74,-8,-11,-6,-229
99,1285,-120,-7,114,50,-45,-37,0,-47
61,1835,-119,14,64,43,-37,-1,16,148
42,2205,-199,67,19,15,-36,12,87,330
58,2185,-132,219,35,-120,-176,-112,7,414
252,1925,-16,258,-80,-272,-301,-227,-140,169
201,1373,-112,-25,-268,-357,-333,-315,-271,-198
-18,770,-174,-204,-327,-359,-310,-334,-334,-269
-89,-84,85,-81,-319,-289,-228,-200,-164,168
72,-1246,338,61,-225,-141,-61,-4,189,646
209,-1757,333,-22,-120,0,117,142,402,692
-102,-1669,127,-182,-93,48,175,174,326,373
-57,-1148,-34,-194,-25,82,154,180,131,-148
452,-918,73,175,311,270,308,327,124,-314
14,-466,98,309,484,333,336,359,99,-245
-373,565,-99,20,242,65,47,95,-103,-146
-246,1657,-12,1,100,0,-56,-83,-260,-152
-334,2600,113,112,80,117,32,-85,-252,-330
-306,3199,144,89,7,109,35,-67,-133,-306
-126,3343,137,72,-9,105,61,-40,-44,-299
144,3224,132,49,13,141,109,16,39,-136
309,3147,61,-12,0,79,77,39,96,91
33,2758,-38,-99,-41,-10,13,12,43,45
-176,2032,-62,-140,-30,-10,19,30,-62,-151
-192,1502,-143,-169,-77,-71,-28,13,-153,-257
-208,1236,-199,-131,-85,-85,-48,17,-80,-204
-90,1020,-173,-73,-58,-67,-26,45,55,99
-16,618,-194,-15,-65,-89,-31,0,110,226
-97,641,-127,167,40,0,55,-2,59,-30
-114,1182,-1,301,102,18,48,-61,-53,-235
-147,1642,110,361,129,10,0,-107,-109,-312
-96,1867,120,331,198,44,23,-75,-124,-246
-83,1583,-9,51,206,33,18,-99,-134,-266
-39,468,49,-108,171,38,-5,-76,-118,-197
17,677,146,-180,39,-2,-62,-70,-79,-86
-34,1240,102,-245,-82,-63,-100,-87,-89,-56
-13,1640,26,-235,-164,-93,-118,-89,-55,-7
236,1815,-9,-181,-197,-116,-124,-91,-19,47
536,1703,-84,-126,-207,-87,-78,-20,36,205
261,1143,-276,-39,-113,-47,1,55,149,352
-122,513,-359,98,44,-38,9,88,241,460
-103,88,-238,74,63,-100,-62,35,232,517
7,-268,-96,50,8,-144,-118,-44,89,270
399,-542,-142,-64,-145,-122,-84,-56,8,154
577,-630,-166,-121,-221,-83,-11,4,35,238
427,-492,-131,-113,-211,-81,-9,20,7,317
169,-473,25,7,-2,14,31,44,27,324
115,-149,359,148,183,33,6,-21,-30,146
363,374,293,-23,128,4,0,13,41,179
628,991,-139,-287,49,21,70,108,182,446
134,1344,-206,-334,-25,67,130,147,192,395
-518,1539,18,-254,-61,130,185,175,114,-66
-500,1722,201,-55,-23,125,177,148,20,-456
-210,1792,193,4,-47,43,79,56,-22,-435
-314,1550,28,-54,10,-34,-21,-26,53,36
-432,921,-47,-23,114,5,-16,-12,131,524
-368,98,-42,-60,141,70,23,38,187,728
-174,-417,-150,-226,-20,15,-24,-29,28,110
216,-807,-42,-114,-87,-33,-36,-101,-252,-858
361,-1525,235,249,1,-3,5,-83,-308,-1119
262,-2387,359,356,7,20,21,-42,-245,-887
126,-2864,268,282,95,71,85,32,-128,-558
149,-2827,151,225,184,103,123,62,-65,-425
196,-2531,70,92,87,18,40,-4,-75,-345
-431,-2192,-169,-114,-136,-127,-114,-88,-121,-346
-373,-1712,-217,-111,-181,-108,-103,-49,-55,-322
-191,-1141,-150,-33,-103,-36,-31,16,25,-147
-423,-732,-23,5,26,88,88,129,121,-19
-530,-316,101,71,85,121,108,124,84,24
-464,-158,157,106,41,54,30,18,-41,-32
-114,-306,269,78,-31,-45,-73,-69,-57,135
240,-496,356,165,-61,-122,-166,-135,-71,294
201,-1105,314,264,-17,-94,-130,-110,-47,107
-33,-1756,137,284,-3,-83,-126,-131,-112,-172
-223,-2378,15,414,76,-5,-76,-104,-113,-236
-269,-3079,-294,368,141,51,-2,-32,11,17
-65,-3479,-359,345,165,-6,-49,-45,51,188
208,-3646,-369,329,249,24,-27,-4,94,191
290,-3710,-453,156,253,70,40,63,125,91
62,-3567,-199,-133,22,29,53,117,157,14
54,-3360,28,-330,-246,-102,-49,19,116,108
117,-4055,40,-448,-352,-137,-107,-35,110,240
209,-4369,38,-485,-366,-149,-139,-31,188,393
651,-3556,82,-531,-354,-137,-108,2,284,712
930,-2561,175,-465,-222,-8,37,119,402,1020
494,-1875,51,-367,-114,47,91,135,365,871
-136,-1420,-149,-388,-177,-70,-44,-24,68,174
-539,-1670,-204,-363,-191,-127,-124,-129,-241,-553
-625,-2127,-173,-270,-126,-104,-128,-126,-430,-690
-341,-2728,-12,-68,15,27,-5,91,-273,-331
-283,-3406,158,142,212,221,214,342,-89,-274
-215,-3803,200,228,306,286,281,336,-86,-454
-51,-3897,171,210,312,235,202,166,-177,-580
-390,-3765,119,212,419,200,157,60,-140,-626
-565,-3611,50,202,466,152,83,-47,-160,-706
-354,-3340,-88,33,221,-35,-100,-251,-271,-621
-69,-3030,-183,-161,-152,-210,-189,-296,-254,-229
185,-2636,5,49,-253,-196,-157,-223,-155,-7
200,-2153,348,519,-34,-71,-73,-163,-50,46
268,-1621,416,561,98,92,75,2,139,230
766,-842,110,136,23,152,132,99,254,460
1122,-31,-206,-169,-75,53,24,41,233,607
1102,224,-184,-82,-32,-42,-50,-2,239,702
457,196,-68,78,34,-103,-95,-47,206,600
-639,-132,-181,102,171,40,52,62,252,371
-1304,-681,-220,154,313,219,209,167,243,143
