13,799,-49,1,-13,-2,-10,-30,8,14
25,31,4,-5,-13,-8,7,-22,-1,22
29,-918,-38,4,-9,-9,2,-7,-23,19
18,-1773,-11,10,12,0,1,10,-13,19
23,-2499,48,17,25,1,9,14,-10,27
14,-3101,42,16,21,1,13,5,-32,22
15,-3467,26,13,31,-14,22,8,-42,24
33,-3477,31,4,35,-22,41,23,15,45
29,-3272,41,3,33,-22,32,10,36,40
23,-2853,42,1,17,-24,26,-11,21,28
21,-2246,44,0,12,-9,22,-25,12,37
6,-1677,-21,-14,15,0,21,-19,6,40
9,-946,-132,-21,12,-5,13,-7,-32,41
56,-108,-69,-32,-4,-4,-20,-24,-31,46
41,471,-3,-22,-9,-1,-73,-37,-45,39
2,123,0,-16,-4,0,-71,-6,-8,57
-4,-1377,7,-18,-3,-13,-21,20,31,44
-9,-2166,16,-7,11,-9,-14,18,35,18
21,-2618,28,-2,22,7,-12,20,30,28
40,-2837,32,9,23,-14,-21,10,15,60
40,-3371,21,5,18,-22,-18,6,7,84
40,-3959,6,-6,4,-19,-6,10,13,99
56,-4375,14,-5,7,-22,-9,12,20,100
77,-4433,32,6,5,-28,-18,1,28,93
51,-4118,22,5,11,-26,-13,12,31,86
31,-3484,20,-12,11,-37,-12,10,29,84
-16,-2568,22,5,23,-24,-19,-4,6,52
-58,-1648,18,26,31,-16,13,-3,-14,7
-78,-759,18,18,19,-14,14,0,-55,-18
-102,261,-4,3,24,-10,-1,2,-53,-29
-133,1311,-24,-15,30,2,25,-2,-68,-24
-133,2083,-20,-7,26,16,29,-2,-73,-18
-113,2329,-27,-2,21,29,28,0,-89,-10
-95,2223,-30,2,20,37,27,-2,-74,9
-22,1799,-32,-1,1,15,-16,-14,-67,29
67,1094,-16,7,-2,-11,-50,-14,-6,51
90,434,21,14,7,-10,-48,-6,17,74
77,-148,2,1,-4,-17,-37,-18,-19,83
85,-632,-12,-9,-21,-26,-15,-32,3,88
91,-965,0,-7,-28,-34,3,-30,29,87
61,-940,19,5,-14,-27,1,-20,13,57
-43,-682,11,13,0,-10,16,19,-37,30
-82,-208,3,9,11,-7,30,78,-21,30
-29,642,13,4,2,-5,0,100,-27,51
16,1531,19,6,3,-1,-25,85,-24,72
3,2386,24,29,21,8,-23,36,-41,45
-62,3413,17,37,19,22,-18,-19,-26,10
-70,4341,0,23,11,31,-27,-43,-24,7
-40,4773,-22,0,3,14,-38,-50,-21,-2
-18,4764,-20,-2,-11,7,-35,-36,-9,-3
-41,4513,-5,-4,-11,13,-26,-10,20,18
-82,3803,-7,0,4,22,4,-2,37,42
-59,2936,-18,0,10,17,17,-2,43,55
13,2215,13,15,0,3,28,-4,-10,91
-14,1510,46,29,6,0,49,-4,0,81
-56,871,31,25,15,10,66,25,16,26
-41,525,29,30,25,4,67,17,-23,-10
-7,547,-2,31,22,0,57,0,3,-7
-13,750,-34,6,9,-2,38,18,71,-21
-18,1206,2,-5,0,0,16,40,76,-33
6,1871,16,8,4,12,-22,26,18,-6
34,2512,10,19,5,5,-28,9,-5,24
-1,3236,-64,3,9,10,-30,5,-29,14
-40,3977,-157,-4,7,12,-23,1,0,-12
0,4518,-103,-3,-15,2,-32,-5,13,-28
66,4585,4,-10,-32,-18,-49,-15,-14,-49
113,4270,12,-24,-39,-20,-46,-23,14,-45
158,3650,27,-23,-26,-13,-22,-15,25,-37
116,2676,29,-10,-14,-2,-10,2,-5,-49
7,1661,32,4,12,13,28,17,-26,-91
-80,763,31,11,17,0,38,2,-16,-112
-87,-21,10,-2,-7,-17,19,-12,-38,-91
-21,-634,20,2,-6,-20,6,7,-22,-45
-6,-931,28,3,-5,-17,1,32,-28,-24
-16,-898,14,-9,-17,-13,9,29,7,-2
21,-675,5,-14,-16,-11,4,34,42,31
30,-177,10,-2,0,-2,-5,21,26,43
11,442,11,2,11,-1,-13,-20,-19,23
-1,1100,0,7,24,3,-9,-34,6,2
4,1864,-18,12,36,26,0,-25,47,-31
14,2575,-7,2,23,27,-2,-42,4,-46
-8,2934,-23,-22,-3,10,-13,-50,-49,-42
-31,2809,-36,-27,-13,-3,-23,-34,-27,-40
-13,2407,-13,-18,-13,-5,-24,14,2,-10
32,1666,23,-4,-10,2,-15,84,20,23
82,657,19,-1,-12,-4,11,150,25,35
66,-274,-8,0,-28,-15,24,170,50,31
40,-1137,-33,-5,-23,-6,37,127,77,27
30,-1883,-77,1,-9,-6,43,65,74,11
-3,-2422,2,4,-11,-13,20,17,92,4
-14,-2590,37,14,7,6,-1,-35,61,5
0,-2515,49,33,22,6,11,-59,35,1
3,-2211,40,3,-1,-18,28,-50,27,-2
2,-1633,31,-16,-35,-34,21,-17,43,8
-6,-997,4,-13,-41,-16,15,-26,30,-4
5,-263,11,-12,-15,4,14,-47,0,-35
30,558,19,-11,0,15,6,-42,-13,-21
26,1195,-4,-17,-16,9,8,-2,33,8
2,1373,-22,-16,-5,15,22,41,71,12
-16,1154,-94,-10,-12,12,18,36,17,-4
-5,690,-128,1,-26,-12,-16,-5,-22,-15
-4,-150,-112,6,-32,-21,-29,-18,-22,-28
12,-1100,-111,4,-15,-11,-31,-14,-6,-15
50,-1920,-52,4,0,0,-33,-23,12,7
49,-2658,40,18,12,15,-25,-8,-1,-13
66,-3269,10,14,7,20,-19,-1,-28,-9
57,-3577,65,9,5,16,4,5,-1,9
6,-3518,82,5,1,11,37,7,26,26
-35,-3220,74,3,0,20,41,10,11,9
-64,-2616,64,1,0,36,13,12,-10,-11
-49,-1781,78,-10,-1,31,-8,-10,-21,-43
-10,-911,73,-8,-14,18,-41,-32,-44,-38
26,116,21,-10,-34,0,-61,-10,-34,6
38,1154,-79,-14,-33,13,-38,16,2,27
-43,1899,-84,-12,-25,21,-8,16,13,3
-106,2154,28,-3,-18,23,-18,16,17,3
-7,2121,57,-15,-12,28,-11,9,30,15
78,1781,56,-8,2,33,-21,6,19,27
38,1075,54,0,19,23,-15,16,8,-2
-31,358,3,-3,21,23,-9,17,0,-33
-45,-225,-77,0,12,26,3,8,1,0
-63,-729,0,27,20,28,29,34,18,17
-11,-1064,46,27,17,19,58,37,8,30
85,-1064,61,10,4,-3,29,13,4,47
97,-821,58,17,-3,-10,-1,4,-2,41
28,-409,40,24,11,7,3,4,-1,21
-68,273,27,29,43,26,28,8,-23,-15
-110,1060,9,49,56,35,50,8,-26,-32
-91,1896,-68,23,46,22,31,-13,-9,-30
-78,2807,-63,3,29,2,7,-28,-30,-38
-88,3616,1,8,21,20,1,-33,-63,-57
-94,4024,-2,6,12,32,21,-41,-49,-54
-48,3950,14,1,11,19,12,-55,-70,-13
37,3588,19,-11,12,9,7,-42,-36,16
71,2824,21,-3,23,15,34,-24,-33,18
71,1813,18,-2,20,15,56,-15,-23,13
93,910,17,-15,9,-11,57,-14,-1,-6
57,65,27,-15,4,-20,59,0,41,-34
-9,-683,19,-1,12,-21,55,13,74,-68
-44,-1244,-49,-6,12,-38,29,3,46,-66
-20,-1463,-131,-21,0,-34,19,-4,25,-63
-23,-1452,-52,-21,-3,-16,18,2,3,-56
-30,-1227,-25,-13,-11,-13,10,40,9,-33
-40,-743,16,-18,-16,1,15,93,40,-12
-64,-232,-10,-14,2,8,23,120,31,4
-50,365,-88,-10,-5,13,9,93,21,4
-35,1035,-17,-16,-13,27,5,32,13,-17
-40,1546,29,-9,7,33,15,-36,-28,-23
-41,1613,28,6,34,32,5,-72,-58,-44
7,1349,-12,1,22,18,-3,-68,-46,-49
69,831,-84,-20,2,6,-5,-50,-60,-34
77,-83,-5,-12,0,3,28,-16,-9,-20
96,-1100,34,3,-7,2,40,2,6,11
125,-1948,42,10,12,15,28,16,39,14
140,-2634,-2,8,29,16,17,20,50,16
154,-3175,-20,11,21,0,21,7,43,28
86,-3430,46,1,7,-16,-7,-7,27,24
-74,-3323,22,-15,-11,-40,-29,-20,4,-8
-186,-2997,12,-18,-17,-48,-17,-28,2,-44
-149,-2392,8,-13,-5,-33,-15,-17,-6,-47
-55,-1591,-91,-8,8,-12,0,-12,-37,-24
-18,-736,-128,-1,6,3,-19,-10,-53,-18
-32,241,-19,0,3,10,-43,-1,-28,-16
-36,1189,11,-2,19,12,-58,-22,-47,-26
-47,1787,14,-2,20,12,-83,-36,-61,-42
-56,1885,0,-6,5,12,-84,-53,-78,-40
-42,1762,1,0,-9,11,-67,-58,-64,-51
-18,1292,-18,-4,-11,5,-53,-32,-18,-46
3,499,0,-8,-12,0,-24,-1,-15,-31
1,-260,37,-3,-4,-5,-17,18,-18,-14
-7,-933,-17,2,2,-16,9,34,42,5
-2,-1520,-46,1,3,-17,27,50,43,23
21,-1932,32,-4,10,-23,6,45,26,40
37,-2021,52,4,5,-26,-9,33,16,37
48,-1839,53,9,-6,-22,-9,13,39,40
42,-1490,48,19,3,-22,-22,2,41,31
25,-888,54,19,15,-21,-31,-10,12,20
21,-192,57,11,11,-14,-39,-23,1,-6
9,549,-14,-1,-9,-17,-38,-28,-30,-11
-2,1378,-14,-22,-15,-18,-26,-27,-6,-5
-17,2048,-10,-20,-5,-13,-34,-32,-35,-19
-31,2322,-20,-10,1,4,-14,-41,-64,-45
-35,2176,19,-3,11,14,25,-34,-26,-29
-7,1804,28,-7,-3,3,31,-47,-68,-3
37,1107,15,-8,-21,-18,19,-65,-105,61
59,177,5,-24,-19,-33,16,-56,-73,85
57,-666,0,-33,-17,-35,21,-41,-27,48
55,-1383,-6,-14,-22,-24,26,-42,-29,32
41,-1997,-10,-15,-38,-37,5,-56,-33,18
-6,-2385,11,-13,-25,-59,-35,-10,64,11
-55,-2370,41,11,11,-31,-21,103,216,0
-18,-2056,43,13,18,-12,-12,146,153,0
32,-1502,21,3,12,-8,1,148,51,15
20,-784,1,-11,-1,-12,38,164,24,25
8,6,-2,0,3,0,45,116,23,12
-28,883,9,25,34,39,39,62,18,-13
-28,1804,7,29,34,50,-2,2,-6,-33
20,2512,-15,4,3,25,-60,-51,-19,6
51,2708,-21,-10,0,11,-39,-61,-29,38
46,2406,-23,-10,0,0,-11,-55,-43,32
82,1830,-12,0,-11,0,-35,-31,-63,70
114,1043,15,2,-28,-16,-50,2,-7,117
32,194,19,6,-26,-16,-34,25,27,78
-42,-576,38,21,-2,-9,-10,13,36,7
-74,-1265,62,42,7,3,10,15,22,-33
-57,-1776,57,41,14,5,19,28,40,-13
-4,-1917,53,32,4,-13,4,8,53,23
0,-1694,50,26,-7,-21,-8,-8,5,9
13,-1275,32,34,-19,-17,-13,-11,-52,2
39,-589,6,25,-17,-6,-12,-22,-57,21
16,200,-4,22,-1,13,-16,-31,-51,27
3,994,-14,19,6,11,-15,-42,-12,9
-52,1888,-21,0,-10,13,-25,-45,-7,-18
-100,2801,-57,5,-22,17,-41,-44,-26,-16
-85,3366,-125,21,-8,24,-45,-47,-16,-22
-65,3388,-77,10,-1,27,-40,-36,-9,-19
-25,3146,-111,21,6,31,-31,-20,-40,-9
11,2667,-133,29,28,47,4,2,-21,29
4,1915,-50,37,39,38,26,1,-25,40
-54,1164,42,30,29,15,19,-14,-4,31
-48,505,25,18,19,9,13,-5,21,41
-27,-71,-72,12,5,1,16,26,53,49
-41,-501,-47,-4,-2,-1,42,34,54,45
-24,-552,17,-15,-3,-1,57,32,49,37
30,-348,28,4,-12,-1,43,13,37,29
34,16,26,5,-6,1,5,22,55,33
6,635,16,-5,1,-3,-18,29,48,24
-12,1327,18,-10,-11,2,-24,18,17,11
-11,2031,25,-15,-21,7,-22,-4,-13,-1
18,2753,27,-21,-28,18,-38,-25,-36,-6
19,3297,14,-13,-24,24,-50,-33,-46,-11
-1,3422,4,1,-16,31,-46,-31,-65,0
-20,3194,13,9,-8,39,-30,-30,-72,19
-36,2650,28,8,-7,34,-22,-40,-83,27
-21,1717,33,12,0,28,-21,-44,-76,27
-7,646,31,6,4,17,-17,-41,-40,15
0,-325,26,10,-8,4,-13,-31,-25,26
3,-1219,24,-8,-24,-5,9,-27,-2,23
16,-1980,41,-13,-20,-4,52,-16,-32,5
32,-2449,38,-15,-15,-24,72,-11,6,2
43,-2582,16,-22,-20,-35,63,-10,15,7
28,-2486,-1,-18,-18,-38,40,-18,-39,10
19,-2135,-12,-25,-14,-40,-5,6,-33,72
1,-1737,-28,-28,-21,-29,-17,69,-26,125
-20,-1370,-114,-21,4,-1,14,98,-16,81
46,-650,-149,-29,0,-17,-4,110,51,97
77,159,-60,-37,-7,-20,-23,109,151,140
27,702,-19,-19,21,22,4,58,111,105
44,786,-16,-14,26,16,-1,-12,64,73
40,476,-8,-8,30,3,-8,-31,13,31
-24,-127,21,9,42,35,3,4,2,-9
-89,-1006,31,25,51,47,20,2,10,-11
-83,-1835,-14,22,46,26,19,-7,-10,-17
-34,-2487,12,13,41,10,27,-9,-35,-31
17,-3035,11,1,24,6,51,-8,-20,-6
30,-3440,43,6,0,1,56,-9,-34,21
49,-3481,59,12,-9,-9,47,-7,-40,14
46,-3158,59,1,-16,-17,23,-21,-56,-14
25,-2618,46,-8,-23,-14,20,-20,3,-13
-7,-1801,20,-4,-13,-3,27,5,61,-10
-47,-860,-5,-1,-8,8,28,-6,44,-9
-46,151,-4,2,-3,6,11,-32,12,17
-10,1303,-6,0,-11,4,-31,-41,-37,47
-14,2337,-5,6,-8,8,-74,-50,-33,25
-30,3002,-5,4,-1,21,-73,-43,-66,-24
-33,3161,-9,12,0,35,-59,-32,-51,-53
-7,3045,-49,20,-1,34,-46,-15,14,-57
0,2594,-20,29,-1,35,-29,13,56,-49
16,1860,12,24,-15,38,-6,39,38,-35
25,1138,26,27,-24,18,0,38,25,5
27,492,34,26,-12,10,2,32,24,24
35,-80,-8,14,-15,-7,-8,20,13,20
31,-485,-7,14,-15,-12,-8,8,-10,19
22,-579,34,25,-6,4,2,0,-18,8
16,-455,26,23,1,1,-1,0,-11,-2
12,-151,19,12,8,-6,-8,-4,-42,-8
13,378,38,9,14,-11,-18,-18,-60,-7
14,943,30,-4,17,-13,-34,-12,-32,7
12,1592,19,-7,11,0,-42,16,34,21
0,2313,-3,5,9,7,-24,31,28,27
-26,2878,-26,-8,3,10,-23,32,-19,22
-22,2972,-33,-5,24,8,-25,28,-29,15
2,2645,-16,4,23,2,-12,17,-39,7
10,2049,-9,6,17,-2,-11,15,4,21
31,1081,4,7,18,-5,-6,14,26,40
50,11,13,8,16,3,4,1,-13,50
51,-933,-51,-9,14,7,12,1,9,49
61,-1797,-113,-16,15,-6,21,12,41,37
64,-2523,-138,-5,9,-6,19,20,21,29
34,-2970,-109,3,6,-22,5,3,-17,19
-41,-3068,-33,-18,-9,-46,-6,19,28,8
-75,-2941,-34,-22,-5,-46,12,55,70,0
-30,-2583,20,0,20,-21,24,33,51,24
-6,-2007,48,1,17,-8,29,5,15,45
-11,-1409,39,-4,15,-5,50,-9,14,25
-25,-691,19,3,12,-3,48,-8,20,6
-29,30,-17,11,3,0,29,-18,-16,4
-21,514,-4,11,-2,4,8,-37,-63,-25
-12,489,-67,5,7,0,-24,-44,-77,-37
-23,110,-23,14,7,13,-29,-34,-74,-32
-13,-579,16,1,10,18,-15,-21,-40,-22
1,-1585,54,2,11,11,5,-10,-32,-2
-7,-2575,39,18,22,8,31,-3,11,-2
-44,-3451,-25,7,24,23,38,17,59,8
-11,-4180,10,0,-2,2,3,39,80,39
47,-4753,43,11,-14,-29,0,32,65,53
38,-4977,36,11,-10,-28,14,26,54,37
3,-4890,24,17,-16,-18,13,14,11,14
-7,-4593,-1,12,-25,-24,6,-11,-30,-10
-1,-4006,-52,23,-17,-5,13,-27,-59,-36
-15,-3313,-23,22,-2,14,18,-48,-79,-66
-48,-2559,-5,4,6,21,18,-63,-65,-82
-37,-1630,-10,-9,-5,-7,-8,-28,4,-16
-40,-810,12,1,-24,-44,-56,5,67,58
-60,-381,6,7,-23,-41,-40,5,67,63
-33,-400,-106,-5,-36,-29,-22,23,45,57
-30,-674,-165,-5,-24,-5,12,26,15,15
-27,-1301,-127,-15,-16,5,36,12,9,-40
0,-2120,-68,-19,-5,8,54,2,-10,-68
21,-2824,-59,-20,-12,0,35,1,-29,-36
33,-3438,6,-48,-48,-46,-5,32,45,31
3,-3992,-7,-66,-68,-74,-14,41,66,50
24,-4316,34,-58,-59,-68,-14,25,33,42
86,-4212,49,-28,-31,-56,0,2,8,16
89,-3645,59,-9,-11,-31,40,5,11,-1
76,-2853,36,8,29,4,50,-1,10,-40
34,-2217,-58,31,70,34,48,-16,9,-54
36,-1532,-16,36,43,9,14,8,15,-26
43,-862,65,17,6,-15,-30,26,50,0
49,14,60,15,7,-7,-24,22,63,5
29,721,28,-2,12,27,-6,1,46,1
3,979,-10,-24,0,52,-1,5,27,0
19,825,-15,-37,-21,33,-2,31,21,-1
67,453,11,-24,-13,27,8,0,-22,-24
37,-251,-10,-18,-5,30,13,-31,-67,-59
-66,-999,11,-3,-5,25,-30,-57,-110,-115
-96,-1656,74,35,11,28,-33,-66,-116,-118
-37,-2189,66,39,24,23,-6,-43,-55,-63
-44,-2704,70,45,22,10,-2,-33,-3,-36
-7,-2982,72,68,33,18,9,-31,-26,-25
27,-2984,49,53,45,29,20,-17,-23,-26
6,-2814,-28,-16,10,15,-1,-3,-40,-30
-13,-2393,-59,-57,-8,17,-28,8,-9,-46
12,-1805,-34,-69,-4,32,18,24,12,-32
44,-1209,7,-32,18,38,51,-1,-44,-33
40,-503,33,12,38,39,14,-51,-108,-48
9,269,19,15,30,22,-39,-64,-83,-47
-14,784,-62,-12,-4,-11,-84,-46,26,-16
-26,389,-92,-35,-35,-45,-111,-8,83,12
-22,-193,-16,-24,-22,-27,-73,18,49,-1
-24,-1119,36,-18,12,20,21,55,28,-13
34,-2258,40,-5,20,53,88,114,38,9
59,-3505,45,-6,12,33,62,118,39,17
53,-4508,45,-16,-1,9,52,45,-15,-2
97,-4872,28,-37,-22,-18,43,-44,-46,0
161,-4701,-37,-61,-59,-32,59,-52,-26,45
154,-4415,-116,-66,-53,-13,76,-65,-40,46
106,-4149,-70,-28,-17,13,78,-84,-85,0
115,-3901,17,10,17,19,82,-27,-47,7
59,-3657,18,25,20,14,66,48,45,64
-21,-3431,69,24,28,21,47,51,66,71
-49,-3218,70,36,57,62,31,-26,-14,-46
-60,-2966,-13,46,65,59,-55,-90,-65,-116
-20,-2540,-7,34,36,11,-121,-46,27,-41
-4,-2259,19,4,3,-30,-127,5,91,44
-49,-2049,12,-17,-15,-31,-119,26,89,85
-74,-1587,45,10,15,-9,-112,6,55,70
-73,-1426,60,31,46,13,-100,-24,-8,-1
-86,-1476,43,4,38,36,-32,-43,-81,-50
-143,-1313,18,4,35,60,102,-52,-173,-94
-163,-1143,-50,39,81,111,156,-47,-232,-145
-153,-624,-49,46,131,177,150,-92,-313,-201
-134,458,23,42,125,160,101,-106,-253,-170
8,1233,93,41,17,7,17,-2,4,14
66,1782,49,9,-39,-37,42,84,123,116
51,2826,-75,-7,-27,0,0,105,113,134
79,4032,-29,-18,-44,-16,-62,93,94,149
85,5396,74,6,-40,-8,-64,50,8,130
53,6611,80,29,-6,28,-49,3,-79,134
2,7846,52,29,5,54,-33,-38,-142,130
-80,9475,40,39,12,76,-16,-75,-157,84
-58,10438,32,34,16,82,-17,-122,-169,7
21,10867,36,41,14,93,-8,-128,-183,-47
-2,10978,35,66,48,113,34,-35,-22,-43
-90,10998,24,82,74,138,43,18,104,-47
-83,10793,54,79,37,74,-28,72,219,-16
28,10434,66,58,-30,-20,-74,109,266,58
42,10588,39,54,-38,-22,-42,70,175,49
-5,11141,21,74,11,29,15,11,84,-23
-38,10890,54,85,64,91,36,-13,25,-63
-2,10270,11,61,24,84,9,25,59,0
61,9915,-63,20,-41,21,-35,94,156,73
26,9424,16,25,-42,14,-54,59,99,49
-41,8870,53,49,-15,39,-49,-1,2,-17
-88,8351,-1,81,35,71,-34,-69,-101,-83
-85,7848,7,87,55,88,-38,-114,-175,-110
-48,7393,30,34,13,68,-27,-71,-135,-60
-36,6954,20,-10,-26,53,-14,-14,-77,-26
-48,6535,21,-2,-18,80,-17,-27,-109,-42
-1,6146,16,1,-26,66,-27,5,-51,-2
46,5778,21,-2,-41,32,-57,61,31,50
82,5430,25,-3,-58,-15,-63,92,122,98
120,5084,20,-7,-73,-46,-34,118,203,140
126,4773,28,19,-35,-30,-4,57,128,104
167,4483,42,65,-3,-8,18,-14,13,69
233,4216,74,62,-3,-17,20,-26,-22,84
206,3958,54,37,-2,-20,12,-54,-42,69
123,3727,55,47,-2,-22,-3,-76,-76,33
14,3512,55,55,4,-16,-9,-55,-73,-13
-58,3295,28,38,10,-7,1,-6,-28,-54
-33,3079,4,26,0,-16,9,9,43,-58
9,2907,5,20,-18,-11,0,19,87,-46
-39,2751,16,24,-13,32,9,0,44,-58
-114,2583,13,35,15,80,44,-34,-64,-97
-86,2436,16,59,-2,53,22,-61,-122,-130
-98,2278,14,63,-2,37,11,-88,-161,-151
-121,2106,0,68,13,28,43,-120,-183,-156
-105,1844,-43,59,10,-22,46,-81,-120,-119
-112,1748,-55,67,21,1,54,-64,-91,-112
-99,1712,-122,53,0,24,57,-15,-25,-77
-56,1351,-68,31,-37,-41,19,79,111,1
-50,953,9,20,-35,-68,-4,98,136,15
-47,1102,-1,-1,-37,-65,-23,67,102,11
-5,933,-30,-16,-44,-48,-17,34,87,16
19,728,-4,0,-13,-25,-28,7,66,32
40,535,29,1,-11,-39,-79,2,84,61
88,889,43,-1,-47,-54,-116,3,63,60
104,939,-12,-57,-65,-47,-88,8,8,38
54,803,-109,-102,-70,-18,-26,32,43,8
-22,802,25,-19,-18,10,-29,-1,20,-46
-42,759,122,36,14,24,-41,-37,-24,-72
29,399,92,38,21,49,-43,-19,7,-5
30,-243,33,10,12,53,-14,0,10,40
-11,-1276,22,0,4,50,20,-23,4,5
19,-2983,33,0,-4,41,10,-28,-28,39
140,-4877,21,-26,-37,13,-28,-52,-49,68
132,-6573,31,-13,-38,12,-21,-36,-13,76
-6,-8008,60,18,-6,34,21,0,-13,29
-176,-9583,64,28,15,57,64,7,-23,-113
-188,-10507,66,23,21,62,93,15,-57,-259
-81,-10822,56,21,24,65,96,16,-42,-237
3,-11108,-17,-6,18,50,87,20,-16,-137
28,-10675,-93,-14,-3,39,67,14,9,-109
45,-9976,-21,-6,-14,39,39,25,9,-110
18,-9038,20,-6,-19,33,28,9,9,-107
20,-7994,15,-14,-37,14,15,-26,-38,-115
29,-7422,-10,-23,-63,16,11,-52,-66,-77
12,-7331,-34,-29,-73,25,24,-94,-72,-27
-18,-7282,-28,-25,-61,32,30,-94,-74,10
-53,-7452,-38,-44,-53,31,54,-63,-59,41
-81,-7636,-55,-35,-36,31,52,-33,-39,-2
-96,-8008,-1,10,7,48,47,-40,-71,-150
3,-7870,25,-6,-5,35,38,-20,-56,-181
126,-6838,-55,-59,-83,-33,15,61,55,-25
117,-4402,-60,-33,-87,-63,-14,32,47,7
34,-3180,-17,11,-36,-34,28,-9,-20,-34
-27,-2341,-30,41,0,10,66,-46,-42,-39
-16,-1406,66,55,-12,9,85,-52,-33,20
-39,-409,70,41,-2,19,100,-42,-42,30
-44,871,42,38,21,36,62,-83,-99,-19
-46,2080,9,8,2,28,28,-63,-86,-17
-107,3328,-29,-50,-34,-15,-6,-2,-6,24
-169,4988,-15,-43,-38,-42,-44,-24,-26,26
-159,6099,-10,5,-42,-35,-47,-34,-30,19
-116,6481,1,8,-21,-23,-48,-31,-60,27
-70,6625,-20,-37,-28,-36,-31,-5,-40,61
-32,6234,-19,-54,-32,-41,6,0,-30,59
48,5330,2,-14,-9,-45,17,-36,-75,39
65,4161,17,34,-1,-53,9,-34,-72,56
25,2700,8,22,4,-46,-1,-34,-54,59
19,917,6,-4,-11,-67,-31,-4,8,69
24,10,3,8,-7,-76,-13,-2,21,63
40,-573,15,20,-8,-75,6,0,-3,84
39,-1267,-5,43,18,-58,67,-44,-79,40
32,-1778,-52,50,63,10,144,-112,-199,-69
3,-1921,-5,40,80,53,120,-135,-235,-108
86,-1871,-17,-28,-12,-64,-31,19,23,70
141,-2522,-36,-59,-74,-163,-89,119,226,196
99,-5402,-27,-53,-46,-154,-69,69,164,114
76,-9376,-38,-89,-49,-147,-36,38,60,43
62,-10590,-56,-113,-62,-149,-9,22,38,35
50,-9685,-62,-108,-58,-124,13,12,59,30
43,-8494,-54,-94,-50,-103,25,3,35,32
7,-8433,-22,-73,-38,-86,39,-14,19,30
-24,-8522,11,-45,0,-58,59,-48,-43,-23
-82,-8079,21,-11,41,-47,41,-82,-102,-112
-72,-7614,19,-6,26,-76,32,-68,-73,-93
42,-7163,-21,-67,-59,-124,35,48,45,65
101,-6729,-62,-86,-91,-132,36,102,124,145
94,-6334,-55,-73,-75,-134,30,53,107,144
3,-5974,-42,-41,-41,-125,-1,8,22,69
-77,-5620,-35,-10,4,-97,-37,-13,-34,4
-47,-5275,-34,8,41,-64,-31,-31,-28,51
61,-4958,-31,16,60,-49,-12,-14,0,124
128,-4664,-65,8,47,-39,-13,-12,-10,137
85,-4376,-173,12,25,-33,-20,-75,-113,75
14,-4115,-151,20,11,-48,-38,-112,-184,35
-68,-3877,-64,7,-6,-60,-50,-111,-161,8
-69,-3650,-80,-23,-20,-63,-45,-73,-103,1
-10,-3422,-99,-36,-28,-67,-35,-27,-72,31
5,-3214,-106,-34,-40,-61,-27,32,48,77
-28,-3023,-87,-27,-43,-53,-14,115,190,93
-88,-2843,-53,-20,-35,-36,23,183,262,42
-69,-2669,-34,22,-10,-19,38,148,179,-23
-20,-2507,39,36,12,-7,57,52,21,-59
-20,-2360,45,26,36,0,82,-35,-89,-90
-48,-2231,12,-11,21,-17,62,-12,-55,-67
-65,-2094,-26,-34,2,-17,37,48,5,-56
-20,-1976,-34,-57,-22,-35,11,109,74,-17
19,-1858,-26,-55,-35,-32,3,121,106,30
-30,-1731,-43,-37,-8,20,24,66,72,-12
-66,-1603,-34,-13,29,22,1,27,18,-59
-49,-1480,-23,1,37,8,-28,-31,-70,-87
-1,-1390,-5,-1,17,-20,-81,-70,-69,-72
29,-1310,-12,-46,-42,-59,-107,-19,52,-23
83,-1223,-26,-62,-67,-107,-142,60,177,75
95,-1128,-28,-50,-24,-92,-107,69,159,86
87,-1042,-7,-24,21,-49,-59,27,78,29
63,-965,24,3,15,-34,-48,-17,10,-20
38,-884,39,4,-4,-23,-5,-56,-22,-20
3,-840,-25,-32,-22,-5,50,-40,-12,65
51,-714,-31,-31,6,32,66,-46,-41,115
94,33,40,-3,34,58,59,-64,-78,114
79,1285,72,15,45,53,62,-72,-84,76
41,1457,66,31,41,47,49,-55,-105,25
9,1870,56,30,44,27,38,-14,-48,-19
30,3031,58,48,42,8,10,-10,28,-60
7,4130,25,35,30,17,-5,1,104,-81
-45,5552,-4,9,11,36,6,7,79,-85
-23,6347,2,3,18,62,5,-33,-8,-76
-49,6644,-9,12,39,102,23,-46,-73,-94
-54,9410,87,81,61,95,-33,-54,-78,-89
-104,15678,202,243,82,136,-60,-61,-71,-78
-176,16729,137,278,66,119,-24,27,8,-65
-91,15762,27,227,48,65,-42,46,34,-29
-40,14797,-37,150,16,67,-5,14,-1,-13
-119,13902,-46,81,-6,58,43,66,39,7
-58,12983,-5,81,-7,13,13,107,68,61
137,11828,55,64,2,-11,-30,45,1,106
233,10912,52,50,17,0,-40,-20,-77,106
170,9434,8,39,27,27,15,-13,-85,49
85,6745,25,29,46,49,51,10,-38,-24
60,4293,75,19,34,11,7,26,13,-51
54,3476,91,41,21,-18,0,63,81,-28
0,3724,70,34,33,-31,0,44,52,-26
-127,4483,15,6,20,-24,-8,63,46,-34
-216,4424,-2,18,46,11,-2,41,-4,-28
-156,2664,-1,8,57,23,0,-3,-45,0
-92,-615,27,-4,48,21,23,-32,-59,-12
-74,-2178,50,13,45,28,58,-58,-133,-78
-85,1858,50,45,91,68,66,-79,-212,-118
-52,7666,0,13,63,24,32,-18,-107,-26
57,8081,-4,-16,16,-66,-63,28,39,106
129,6596,11,-30,-9,-142,-129,84,164,218
158,3680,9,-28,-18,-177,-123,127,232,259
157,1609,4,5,-3,-109,-59,92,139,131
101,1150,12,37,51,-31,-15,22,43,0
20,-622,7,1,36,-38,12,43,53,-56
-69,-362,-6,-43,-11,-77,38,73,68,-84
-87,2882,-29,-22,-15,-92,24,28,3,-68
-71,4298,-34,1,15,-98,15,-25,-60,-79
-49,5444,-42,4,30,-102,-22,-39,-85,-79
-29,5965,-28,17,31,-123,-102,-34,-45,-39
-37,4909,-9,20,13,-129,-121,-1,-15,-31
-35,3027,15,23,18,-86,-102,5,-48,-50
-25,1354,9,23,15,-83,-105,-8,-36,-11
-22,109,-51,-8,-4,-66,-72,5,-13,4
-27,-551,-125,-18,-1,-2,31,8,-62,-21
-31,-790,-114,6,12,33,124,0,-68,-12
14,-2223,18,3,16,-9,182,25,-35,28
88,-3285,30,-2,15,-91,170,38,-36,42
107,-2876,-120,-21,-15,-152,65,43,-8,53
48,2191,-136,10,-7,-151,8,10,-29,12
26,5222,-21,33,-5,-160,-12,-7,-35,2
53,2760,11,45,-29,-138,13,-2,-15,34
51,-31,13,76,-5,-25,78,-21,-63,8
22,2188,-1,91,23,94,95,7,-50,12
7,3807,16,104,42,151,20,-1,-39,22
-81,1869,0,48,25,161,10,2,-36,31
-118,1096,-15,-1,4,205,141,36,-32,20
-83,3111,0,15,17,237,242,36,-67,3
-49,3825,29,57,60,222,260,-5,-127,-49
30,2660,48,64,69,143,164,-18,-97,-46
118,1191,56,53,31,-1,-15,29,-3,47
135,336,7,-20,-40,-94,-82,67,65,123
101,-753,-24,-71,-84,-99,-54,86,111,182
20,-2674,33,-64,-83,-121,-73,89,133,211
-44,-3777,72,-21,-69,-151,-113,95,140,210
-63,-4467,72,7,-35,-157,-101,90,129,156
-31,-4716,54,34,23,-146,-92,78,120,11
-63,-4614,13,48,45,-96,-89,48,37,-161
-69,-4216,28,10,39,-58,-103,44,15,-132
-7,-2534,43,32,44,-16,-147,23,49,-15
104,-1264,82,72,49,7,-193,-37,3,-1
96,-1654,96,64,41,0,-212,-67,-21,-20
43,-1603,71,40,25,-1,-182,-92,-44,-66
-6,-1530,5,8,25,73,-80,-46,-56,-67
-26,-1955,-39,-17,43,199,147,11,-50,-74
51,-2718,-33,-9,47,176,274,67,-49,-52
68,-4005,-21,-1,47,105,232,79,-61,-60
-14,-5925,5,27,72,98,201,-8,-73,-75
-52,-7285,25,41,27,52,194,26,89,44
0,-8287,12,-27,-62,-54,80,111,164,126
6,-8446,-5,-64,-87,-39,20,114,142,106
62,-7504,45,-6,-47,-55,-93,137,149,125
37,-6669,130,75,24,-80,-154,11,26,41
-56,-7162,132,66,55,-114,-139,-126,-136,-56
-69,-7238,115,53,58,-127,-138,-157,-211,-93
46,-4545,117,19,-14,-185,-164,-58,-86,-8
107,-461,98,38,-26,-162,-216,-67,-53,11
144,2792,75,53,-19,-47,-231,-126,-58,-17
70,4798,-43,-11,-49,96,-129,-59,8,-44
-117,5974,-197,-57,-24,352,132,-5,-25,-104
-157,6592,-264,-57,0,442,184,48,-8,-84
-29,7590,-120,-37,-21,277,94,88,67,33
127,8166,10,-21,-38,81,44,99,141,93
144,8036,23,20,7,5,79,88,65,-8
40,7416,72,71,48,-66,39,25,-57,-93
-14,7040,77,66,28,-84,-54,0,-63,-71
86,6814,69,65,-7,-119,-167,36,26,63
70,6449,8,56,-2,-68,-174,48,69,66
-60,5907,-55,56,15,70,-66,10,12,-12
-80,5049,1,39,1,172,61,85,41,10
-71,3970,84,49,34,258,118,77,37,0
-70,3465,98,69,66,269,173,19,-32,-12
-4,3985,20,6,18,181,175,119,91,99
3,4566,-68,-22,4,78,80,183,128,114
27,4491,80,69,36,11,-24,11,-61,0
39,4250,153,99,38,0,-77,-81,-120,-37
-142,3989,82,62,31,59,-88,-111,-172,-77
-173,3747,19,-1,-41,58,-114,-90,-140,-47
-112,3534,32,3,-64,118,-67,-67,-165,-46
10,3330,61,72,6,264,12,-161,-320,-157
46,3120,-83,31,44,379,122,-166,-345,-234
65,2938,-138,-18,6,343,182,11,-153,-164
2,2750,-15,-11,-34,184,125,133,33,-72
-65,2559,41,-28,-112,-55,-52,149,118,52
4,2414,39,-32,-127,-182,-190,120,123,142
50,2277,65,0,-41,-106,-134,137,168,182
107,2143,43,57,41,2,-71,109,199,237
150,2017,41,24,-24,-74,-84,120,183,277
68,1902,82,58,-10,-38,-58,44,6,100
4,1816,206,178,113,120,-67,-61,-174,-150
54,1714,152,136,54,130,-81,128,48,-82
122,1605,73,78,0,82,-83,180,107,-63
26,1512,169,119,48,145,-32,30,-82,-271
-163,1431,129,119,54,188,-22,0,-108,-298
-160,1347,18,85,36,171,-37,-9,-114,-216
-61,1259,32,99,83,125,-111,-141,-280,-207
-285,1172,-25,74,153,176,-35,-79,-284,-212
-222,1102,52,138,186,66,-168,-14,-136,-88
38,1040,148,161,93,-173,-356,181,204,235
239,977,175,105,4,-221,-402,265,308,348
120,918,45,15,-18,-89,-203,203,151,134
54,858,-3,-22,-39,9,-32,97,11,0
20,808,60,16,-60,-75,-102,124,57,53
-117,751,88,22,-39,-111,-77,33,-32,-124
-24,707,150,60,-4,-234,-201,-79,-106,-222
55,676,35,-57,-136,-378,-318,60,90,-90
39,639,-102,-222,-282,-495,-475,198,319,102
-78,592,-58,-177,-206,-453,-556,70,185,58
-114,559,71,-17,-48,-301,-666,-129,-10,9
-448,536,-16,26,-4,-44,-600,-162,-72,-77
-845,517,-95,26,4,410,75,-253,-350,-452
-703,482,-163,-61,-24,781,873,-89,-381,-383
-245,446,-129,-78,-58,746,899,152,-70,-1
305,415,-9,14,-67,399,510,226,223,389
927,391,106,124,-19,99,232,218,317,654
742,376,199,291,191,174,263,124,132,346
6,347,265,345,334,294,332,-58,-220,-377
-175,327,104,184,234,198,184,-129,-362,-692
5,316,-79,-103,-71,-85,13,115,-95,-384
271,288,-40,-151,-209,-274,-155,403,291,100
158,273,33,-10,-92,-198,-245,351,292,169
38,264,67,54,-21,-19,-243,197,162,68
-169,251,122,69,-31,225,-91,90,75,-91
-262,241,226,109,-13,510,251,-70,-131,-257
-226,221,314,152,25,498,375,-132,-200,-232
-254,208,304,148,22,289,357,-47,-137,-137
-160,202,170,104,38,159,317,-52,-241,-67
-119,189,12,63,103,248,397,-161,-508,-48
-69,172,-85,-24,87,376,472,-389,-808,-94
112,157,-121,-82,-18,224,233,-391,-610,122
333,151,-23,-50,-119,-96,-108,-217,-197,308
366,144,22,8,-25,-2,-51,-327,-301,55
200,135,39,64,99,131,-2,-283,-215,-105
246,126,55,66,64,-38,-186,108,362,40
312,115,114,30,-84,-321,-342,488,867,246
97,105,83,38,-143,-444,-439,568,905,123
-137,114,-16,55,-22,-290,-301,411,659,17
-122,101,12,98,98,-173,-216,267,500,33
-78,91,135,169,175,-73,-184,218,368,-9
77,78,241,241,238,65,-94,103,111,-186
-1,82,196,266,284,114,-14,73,-19,-339
-131,80,193,248,285,10,-134,-20,-125,-390
115,80,207,196,204,-239,-422,-181,-188,-384
670,65,242,97,-31,-596,-746,-218,-127,-273
902,62,41,-69,-145,-345,-293,-248,-292,-394
549,55,-259,-261,-225,233,411,-64,-249,-356
-347,47,-285,-269,-240,439,452,130,52,-138
-825,50,-213,-164,-85,662,835,281,180,-46
-654,59,-97,-51,3,518,746,301,193,74
-287,47,-72,8,20,177,425,268,179,145
-148,33,-68,34,33,-63,189,76,-37,-40
-49,40,-63,-9,-4,-251,-51,-58,-164,-122
-89,45,-41,-46,-86,-467,-265,-105,-182,-77
-392,46,-33,-1,-31,-439,-434,-316,-357,-177
-690,44,-88,-48,37,-124,-246,-389,-497,-387
-151,52,-51,-137,-105,18,312,-134,-276,-254
653,35,83,-115,-203,-44,487,252,169,98
850,29,36,-76,-104,136,376,129,50,31
364,20,-179,-139,-49,282,509,122,-34,18
-110,21,-171,-57,49,180,418,116,-38,-28
-148,29,-8,11,7,-163,1,52,66,8
-22,36,-16,-46,-110,-464,-354,71,183,146
15,35,-62,-61,-119,-485,-413,30,139,113
-4,30,-133,-58,-58,-305,-190,-9,19,-32
113,20,-143,-40,-19,-139,-96,7,-23,-32
175,12,-106,-44,-5,7,-109,-98,-141,-126
-22,3,-123,-86,-8,225,21,-222,-283,-281
-133,11,99,-34,-48,246,35,-280,-331,-232
-113,12,182,9,-41,177,100,-134,-217,-111
197,5,22,-39,-11,91,206,-63,-202,-177
824,4,-24,-33,0,-58,133,-6,-62,-64
1188,0,12,-40,-68,-243,-1,38,97,175
423,3,-153,-98,-65,-178,5,-35,-38,-9
-178,12,-141,-46,-18,-93,-41,-113,-144,-228
-164,5,-104,-53,-57,-41,-47,-72,-69,-123
-196,-2,-299,-179,-124,130,300,-3,-47,-57
-251,0,-268,-131,-35,408,798,150,-13,-114
-284,8,-160,-88,1,430,901,343,185,18
-301,10,-166,-104,-13,198,596,205,8,-9
-812,2,-156,0,158,113,402,10,-294,-319
-922,0,-125,54,254,105,260,-24,-328,-346
-453,4,-47,-43,41,-117,-44,321,124,154
-175,15,-34,-113,-125,-279,-249,565,516,441
177,1,-84,-145,-153,-157,-185,341,368,341
623,2,-9,-140,-150,44,85,157,186,265
739,8,11,-116,-108,159,373,187,111,193
315,11,10,2,41,169,441,263,121,-3
-381,17,44,146,194,82,289,282,173,-237
-347,12,135,170,187,-45,124,213,104,-307
64,2,199,159,105,-147,26,109,-33,-336
-35,7,190,209,129,-154,-32,-186,-338,-541
-827,3,96,194,201,-101,-72,-470,-633,-719
-937,9,22,112,223,-83,-184,-460,-583,-684
-206,5,-70,-43,30,-278,-378,-139,-116,-266
186,11,-23,-132,-163,-475,-409,146,274,98
238,0,151,-37,-112,-399,-265,84,255,178
130,-4,87,-16,-28,-212,-171,-8,135,118
271,-2,-91,-85,-14,-112,-107,20,178,108
421,-3,-273,-189,-64,-39,57,146,277,131
72,-3,-286,-152,14,149,328,265,287,113
-36,-2,-141,-12,127,167,293,145,136,40
80,1,-56,31,127,44,142,27,54,-1
209,3,17,6,46,-182,-167,-8,117,113
436,0,1,-45,-100,-427,-531,-66,123,244
410,4,2,-50,-129,-434,-475,-191,-48,105
61,-5,-164,-161,-141,-170,-170,-308,-277,-135
-32,-2,-286,-292,-212,126,127,-349,-387,-194
-107,1,-290,-280,-98,522,464,-464,-634,-446
-139,3,-256,-218,51,773,597,-653,-863,-694
183,-1,-213,-281,-145,418,586,-148,-165,-154
314,3,-159,-263,-186,110,576,335,419,270
243,-5,-209,-241,-86,112,527,266,364,215
110,-13,-315,-350,-256,-227,86,421,708,437
116,-18,-251,-309,-347,-366,-33,472,711,529
-75,-14,-169,-120,-149,-144,167,135,111,294
-383,-4,-277,-33,35,-2,326,-63,-243,23
-683,0,-411,-105,51,-20,287,-110,-300,-185
-740,-9,-355,-168,15,-119,124,-130,-242,-189
-238,-10,-34,-49,66,-263,-149,-212,-184,-108
-6,-12,113,47,164,-232,-239,-389,-292,-332
35,-19,-18,-95,48,-206,-217,-208,-32,-273
31,-31,-108,-210,-111,-236,-226,303,532,89
-112,-31,1,-135,-86,-95,-119,631,735,263
-172,-40,193,15,-36,-86,-145,525,576,195
-107,-53,163,-43,-108,-328,-435,177,273,98
11,-65,44,-153,-186,-452,-486,-105,0,3
194,-224,-28,-188,-178,-405,-317,-121,-29,8
376,-1031,-3,-63,-63,-403,-379,61,166,66
795,-2612,295,128,73,-348,-525,16,88,-13
17,-18323,-76,-117,48,290,1077,-224,-655,-506
-283,-19290,-51,-124,90,452,1337,-384,-872,-700
-128,-18441,-13,-183,3,335,1071,-5,-328,-325
730,-17348,133,-163,-101,-2,432,203,204,309
945,-16319,141,-170,-216,-336,-119,385,637,668
351,-15328,-43,-187,-147,-202,-139,312,512,382
-36,-14400,-142,-160,-56,-114,-88,224,328,197
-184,-13544,-146,-158,-69,-278,-187,141,256,169
-481,-12737,-157,-119,-22,-323,-190,134,228,34
-420,-11961,-26,-53,76,-187,-143,55,44,-152
-314,-11232,-28,-25,153,49,0,-174,-270,-392
-266,-10565,-128,-93,82,159,207,-399,-529,-443
-499,-9925,-223,-87,114,225,313,-709,-1000,-671
-849,-9332,-403,-200,213,424,412,-935,-1393,-1022
-125,-8779,-431,-503,-255,29,194,-302,-492,-159
1298,-8253,-78,-440,-553,-577,-327,280,501,1020
1665,-7762,163,-214,-379,-653,-421,403,642,1115
1122,-7295,6,-117,-137,-368,-169,497,598,795
646,-6846,-30,-105,-47,-235,-52,613,701,666
-253,-6443,38,12,94,-161,-94,676,807,327
-732,-6052,0,59,171,-67,-112,577,654,28
-759,-5677,-83,-16,117,55,-89,324,327,-187
-199,-5329,2,-29,51,19,-204,132,104,-217
326,-4996,169,15,21,-169,-373,-12,-19,-111
387,-4684,308,54,13,-291,-496,-118,-78,-56
-129,-4395,191,10,37,-73,-210,-70,-86,-140
-396,-4071,-52,-100,36,271,335,51,-95,-305
-228,-3697,-60,-60,71,365,356,104,-20,-261
-718,-3576,-57,-1,130,379,353,170,93,-134
-461,-3465,79,66,133,219,206,123,62,39
-428,-3276,144,82,95,46,-54,54,11,99
-517,-3085,-5,-13,32,26,-98,24,-23,-82
-258,-2909,73,33,47,-24,-242,-215,-275,-277
35,-2744,207,78,-11,-167,-437,-455,-411,-160
251,-2583,311,52,-76,-122,-413,-553,-436,13
505,-2433,409,71,-23,-63,-287,-510,-402,127
1068,-2293,485,94,-2,-179,-185,-167,-39,485
1092,-2152,252,45,66,-160,-198,156,322,681
432,-2005,31,14,148,20,-148,52,91,280
-525,-1867,66,125,236,183,-103,-204,-358,-395
-692,-1750,54,88,121,30,-190,-330,-500,-637
-824,-1622,18,111,101,-133,-363,-211,-312,-467
-791,-1307,-180,60,136,0,-298,-175,-223,-317
339,-293,-264,-75,29,151,109,11,74,233
212,506,-369,-76,47,333,425,198,244,412
-51,593,-674,-242,-83,217,266,260,347,369
-114,581,-635,-151,-117,-34,3,320,430,392
75,582,-252,95,-8,-101,-153,186,252,359
167,648,15,69,-62,-228,-345,-2,92,288
570,720,-78,-171,-187,-375,-498,-128,-48,256
1010,619,0,-183,-72,-224,-272,-41,-62,232
872,540,83,-88,66,-14,-96,24,-28,200
17,82,186,106,222,-15,-281,180,249,291
-467,-3,123,202,287,-149,-391,276,403,388
-768,703,-275,-15,125,-216,-281,155,197,217
-944,1980,-457,-228,-23,-38,91,-162,-270,-221
-511,3451,-561,-441,-265,49,334,-267,-421,-243
-47,4726,-534,-454,-344,50,256,-47,-126,-1
-35,5656,-232,-173,-110,214,76,-247,-318,-196
-197,6221,-107,-105,-18,536,327,-617,-695,-485
-189,6643,-112,-267,-241,557,579,-226,-197,-208
149,6835,88,-191,-302,243,393,166,376,53
354,6525,207,-72,-216,-27,130,53,389,0
958,5733,280,32,-105,-112,27,82,338,107
1324,4799,237,97,7,16,134,143,227,260
847,3111,142,135,116,118,208,180,165,281
125,1084,176,215,205,125,167,168,185,457
-775,66,159,278,280,191,241,183,154,452
-815,67,97,219,229,143,170,-40,-117,56
-922,-346,-86,101,191,189,210,-156,-271,-423
-970,-413,-136,-30,39,138,122,-113,-133,-412
-894,47,-120,-117,-83,98,-19,-46,83,-162
-504,521,-155,-168,-96,183,101,-19,82,-118
-241,674,-56,-59,-14,176,227,78,58,-275
-346,584,174,196,208,225,183,-86,-127,-499
108,951,254,224,200,68,-126,-127,-95,-276
723,1674,84,49,82,-10,-319,-274,-205,-109
845,1937,-111,-154,-199,-347,-659,-75,205,308
377,1460,-187,-205,-333,-527,-833,40,425,490
252,790,6,-92,-255,-485,-913,-204,243,548
-109,-507,113,8,-68,-329,-555,-103,261,689
-402,-2104,49,5,6,-292,-245,112,398,812
-79,-3381,122,103,91,-378,-551,169,433,751
-74,-4473,300,311,254,-481,-968,123,346,219
420,-4597,314,314,228,-529,-1087,82,261,-104
817,-4275,169,151,93,-328,-688,7,58,-468
-349,-4323,9,61,100,258,-109,-115,-215,-799
-905,-4150,20,2,31,498,28,-305,-405,-673
-387,-3713,139,-26,-42,566,485,-400,-580,-625
377,-2743,146,-83,-80,692,1066,-313,-579,-544
1233,-1264,153,-107,-122,626,1094,-106,-293,-131
1055,269,129,-94,-173,345,716,-18,-88,63
93,1684,-2,39,16,346,514,-98,-198,-201
-239,3194,-94,97,166,422,494,-228,-354,-312
-598,5047,-60,44,31,144,229,-79,-115,-111
-727,6414,-93,-69,-141,-110,-37,65,148,179
-142,7125,-117,-80,-114,-89,-46,5,159,387
323,7970,-149,-49,-28,24,36,-85,68,325
221,8802,2,52,53,76,83,-12,111,212
-516,9014,262,246,220,150,75,-2,44,-114
-913,9759,238,204,169,39,-88,-45,-19,-207
-679,10944,-9,76,12,-168,-265,40,79,-64
-253,11605,-43,26,-56,-289,-399,34,146,79
-98,11791,61,34,-26,-241,-365,4,120,128
179,11540,99,57,-18,-234,-506,-90,55,162
517,10988,9,1,-49,-167,-541,-205,-62,170
621,10355,-38,-21,-45,-76,-327,-226,-107,130
249,9740,5,6,0,-9,-193,-230,-150,-40
-682,9161,107,51,67,141,25,-246,-297,-267
-1418,8628,308,180,164,270,302,-251,-388,-419
-1306,8118,321,188,140,194,216,-222,-300,-355
-404,7625,84,27,14,57,134,11,18,-129
231,7171,-61,-94,-83,46,96,125,138,10
270,6726,-167,-130,-89,154,124,163,145,37
44,6323,-184,-65,-49,157,162,240,216,65
189,5946,-114,0,-8,70,113,126,170,117
-19,5586,-96,15,26,-15,59,54,99,77
-74,5243,-73,20,28,-81,-66,-50,16,-71
466,4934,-62,-7,5,-120,-173,-84,51,-35
617,4621,-45,-42,-32,-164,-227,-38,103,53
37,4335,-82,4,33,-68,-187,-61,-33,-25
-138,4078,77,171,169,-33,-209,-70,-93,-9
168,3837,216,242,201,-146,-309,-156,-141,67
-28,3611,130,178,167,-199,-311,-260,-216,-1
-268,3384,25,54,44,-154,-240,-245,-188,-46
-346,3191,11,-5,0,0,-167,-317,-273,-73
-310,3001,-88,-34,-27,168,-16,-439,-418,-148
36,2828,-162,-25,1,358,292,-544,-606,-324
-88,2653,-402,-45,137,589,637,-615,-759,-603
-152,2489,-476,-183,-56,291,409,-157,-101,-207
572,2340,-160,-225,-335,-337,-220,652,1024,766
764,2168,186,-84,-267,-376,-293,518,911,702
441,1935,457,79,-82,-220,-219,43,377,238
-95,1536,487,152,59,-90,-114,85,273,-53
-258,978,359,126,87,-41,-69,97,102,-177
-200,501,206,129,83,-66,-163,-94,-105,-216
-209,455,-127,48,25,-99,-159,-40,-14,-128
8,645,-235,-13,-62,-200,-278,116,189,58
-150,481,-39,52,-17,-160,-330,71,110,-19
-463,223,90,127,63,1,-64,-63,-83,-196
-402,146,121,145,93,106,313,-8,-84,-178
423,437,132,99,33,12,132,-25,-44,14
600,759,-18,41,-10,-68,-85,12,64,130
51,1150,-235,-36,-23,-8,-47,28,35,-7
-116,1211,-199,-10,-2,85,-25,-114,-156,-38
-203,970,-123,-43,-69,3,-34,-166,-160,20
-564,474,-427,-164,-48,158,258,-4,-99,-178
-449,-328,-411,-70,45,244,259,30,-79,-360
99,-833,-11,90,57,-16,-65,59,136,-33
593,-905,211,64,-46,-209,-238,101,271,327
1016,-1400,265,33,-103,-213,-291,-192,-44,298
374,-2246,-49,-147,-194,-193,-277,-360,-275,152
450,-2351,-309,-354,-314,-139,9,-185,-131,363
1253,-1789,-108,-213,-190,-103,103,0,85,647
882,-1433,58,3,43,-7,139,35,83,484
55,-1041,240,220,297,194,296,108,63,150
-1145,-421,248,242,309,140,187,27,-36,-146
-1190,428,91,126,176,1,-35,-154,-142,-68
-265,1417,-41,26,60,-32,-95,-176,-100,162
320,1906,-5,0,-24,-10,-76,-104,-70,135
212,1872,23,18,-10,126,-36,-147,-157,-291
-293,1769,-113,6,26,191,-59,-59,-41,-482
-353,1667,-91,24,17,83,-76,99,204,-204
-619,1552,-120,-63,-73,-69,4,108,278,-53
-805,1407,-61,-11,-21,-68,-70,-9,125,-240
-194,1281,167,116,45,-89,-220,-39,129,-161
-145,1064,198,156,91,-55,-175,-1,153,-105
-261,769,132,104,71,-32,-28,-26,-11,-153
-184,661,-14,4,-7,-65,99,37,-56,-59
39,727,-113,-80,-80,-129,65,79,51,86
439,788,1,-66,-98,-180,-151,-10,84,184
141,848,104,43,-4,-90,-222,-72,-9,47
-201,948,87,89,64,53,-151,-105,-105,-69
-28,958,-6,49,48,148,13,-183,-221,-130
427,927,32,50,54,83,64,-177,-209,-20
240,865,145,78,49,-76,-16,-79,-49,127
-87,807,292,134,71,-189,-239,-70,9,143
31,751,151,14,9,-117,-164,-115,-33,96
-488,694,-264,-171,-25,225,381,-226,-284,-249
-397,591,-314,-199,-48,383,542,-147,-197,-106
-89,250,-101,-109,-59,329,367,-126,-81,146
32,-565,-40,-16,6,246,204,-380,-321,-39
294,-1675,-6,-1,17,65,62,-428,-360,-121
245,-2740,-190,-175,-130,-133,-109,-308,-165,129
711,-3688,-222,-245,-259,-316,-294,61,320,765
820,-3286,-82,-54,-107,-200,-166,233,449,926
163,-1019,44,103,131,-7,25,239,355,558
-301,821,128,186,235,-20,-100,106,190,199
-323,1311,156,186,194,-248,-401,21,107,-68
-344,1263,98,147,152,-500,-676,-28,81,-241
-191,1192,60,108,120,-594,-797,-146,-37,-224
-203,1123,71,124,155,-444,-726,-241,-93,-257
-405,1060,-12,60,115,-192,-504,-229,-74,-389
-326,995,-101,-110,-37,131,-26,-5,71,-303
-254,935,-99,-131,-47,476,304,95,116,-246
-36,878,-22,-87,-49,495,282,283,282,-30
88,789,108,-50,-67,317,390,404,364,132
154,702,103,-9,-73,174,421,335,212,122
237,581,86,52,-40,-7,138,94,-9,26
318,101,-93,-12,-60,-152,-11,-13,-66,54
305,-815,-100,-58,-94,-184,-112,-42,-22,155
217,-1685,-138,-128,-122,4,100,-2,17,141
155,-2353,-183,-174,-147,165,343,-27,-36,105
63,-2776,-93,-109,-117,164,375,-21,-50,201
-138,-3040,-38,-44,-50,108,276,31,-5,262
-117,-2996,-6,-27,-21,8,151,16,-16,223
-103,-2820,3,-5,12,-47,69,-50,-71,81
-279,-2383,-69,-4,67,9,63,-107,-175,-140
-64,-1543,-235,-46,76,54,164,-154,-261,-192
0,-831,-199,-44,60,74,210,-108,-200,-73
-80,-415,86,56,89,51,61,-137,-195,-158
-38,-315,161,58,68,49,-5,-152,-167,-232
126,-225,41,-74,-77,-17,-55,-89,4,-75
460,-60,-36,-107,-116,-52,-138,-121,30,42
798,71,122,5,-69,-48,-107,-21,121,174
893,-11,294,90,-60,-117,-68,99,179,288
320,-452,231,96,0,-50,-28,134,79,41
-925,-901,-9,-8,26,73,117,190,69,-269
-927,-895,21,32,66,122,110,195,133,-135
-353,-546,123,101,97,148,102,199,183,138
-137,-123,132,89,68,65,65,182,191,245
-130,174,50,80,66,4,134,136,121,194
-57,507,-3,86,100,-35,115,56,56,89
55,834,0,51,32,-200,-126,37,80,49
355,1173,-5,-52,-131,-405,-321,-66,-23,28
643,1462,28,-62,-166,-485,-481,-232,-155,-1
36,1520,-52,-46,-99,-298,-383,-200,-137,-84
-540,1502,-204,-66,-1,148,-31,-96,-96,-153
-515,1299,-204,-91,27,515,307,13,-34,-3
-270,614,-161,-93,-40,463,374,52,27,175
124,-585,-27,-8,48,327,287,-147,-195,100
466,-1918,225,143,144,190,96,-247,-247,68
823,-3302,206,74,12,68,35,-3,83,322
1075,-4544,110,-30,-133,-60,86,351,442,525
129,-5596,5,-67,-121,-93,43,221,289,221
-651,-6613,-154,-79,-29,15,78,39,48,-78
-756,-7408,-126,26,79,87,172,123,59,-108
-390,-7528,-31,68,99,80,170,8,-106,-96
-302,-7319,-30,10,53,33,95,-69,-154,-40
-292,-6771,28,-7,-32,-105,-63,-101,-114,9
-409,-6125,22,29,47,0,21,-326,-398,-216
-285,-5376,-103,64,162,122,91,-525,-598,-347
38,-4447,-187,-41,24,29,-36,-379,-324,-150
159,-3835,-131,-183,-192,-195,-181,69,228,172
28,-3928,-136,-163,-146,-115,-70,199,290,104
153,-4205,-64,-89,-43,1,-12,-52,-10,-42
197,-4850,16,-53,-73,-104,-148,-82,43,127
-44,-6040,7,-105,-162,-214,-199,56,165,253
125,-7070,119,-57,-145,-205,-198,76,194,202
257,-8052,267,48,-64,-160,-204,-8,92,10
42,-9114,246,10,-96,-258,-312,-195,-141,-179
-19,-10044,127,-67,-146,-336,-379,-283,-248,-161
-24,-10530,44,-61,-72,-248,-284,-192,-173,-72
201,-10628,88,45,84,-98,-166,11,29,69
223,-10271,203,186,232,16,-113,126,138,213
-293,-9665,161,159,204,31,-12,83,0,45
-171,-8881,83,66,118,46,-21,42,-134,-73
404,-7738,48,16,70,11,-195,10,-116,-27
672,-6728,-145,-104,24,43,-122,184,131,28
423,-6060,-253,-212,-17,275,412,443,297,46
74,-5363,-66,-157,-50,283,615,346,204,-4
194,-4991,-124,-177,-142,63,268,93,46,-43
-227,-5593,-433,-216,-140,-4,114,27,26,-105
-667,-6234,-255,-132,-64,43,99,6,47,-74
-270,-6147,103,28,32,73,183,152,290,149
-112,-5801,198,109,79,-38,130,146,306,179
108,-5452,119,59,63,-249,-75,-41,85,196
477,-5129,85,46,32,-505,-374,-52,109,340
306,-4815,54,46,2,-662,-599,-72,126,321
-1,-4518,51,46,33,-499,-568,-105,21,96
-213,-4201,20,12,17,-132,-282,23,15,-59
-422,-3663,-46,0,55,385,62,16,-83,-305
-311,-2769,33,77,175,843,666,-53,-233,-533
-72,-1705,117,141,237,843,1006,16,-146,-401
273,-36,277,143,96,194,390,62,55,-138
72,1388,286,123,16,-130,22,6,-65,-232
-620,2027,-3,-2,12,-53,50,-75,-297,-519
-498,2517,-165,-143,-103,-53,-6,91,-50,-211
-87,2777,-20,-86,-152,-52,-243,58,149,237
33,2351,-4,-39,-121,40,-38,44,162,346
-83,1633,-26,-17,-72,91,237,52,86,154
76,1144,24,5,-42,63,164,1,12,65
33,458,-52,-31,-29,82,98,31,34,32
-36,-147,-140,-91,-39,80,82,53,47,-2
206,-606,-177,-114,-31,74,132,99,56,48
309,-942,-48,-10,23,42,120,86,-3,104
291,-1010,0,19,24,-24,53,22,-60,118
238,-1341,14,25,44,6,39,-8,-43,110
96,-1350,80,18,42,7,9,12,5,136
-136,-854,96,7,48,69,30,13,34,131
-242,-210,78,19,73,191,46,-92,-75,11
-94,657,96,47,56,144,-6,-91,-67,22
-44,1533,54,39,24,78,37,-74,-99,-27
-95,2278,-60,-6,11,43,75,-55,-155,-195
-96,2693,-141,-41,16,76,74,-72,-200,-218
-123,2262,-228,-140,-80,25,41,-14,-98,-56
112,1323,-125,-118,-132,-97,-84,-48,-45,103
268,185,5,-2,-48,-97,-125,-154,-91,87
197,-1060,-20,51,44,11,-55,-180,-127,-45
135,-2373,18,70,49,-23,-63,42,93,41
111,-3360,88,107,0,-107,-80,217,238,197
128,-3863,30,83,11,-36,35,181,169,234
100,-3922,137,106,78,11,38,73,72,229
132,-3741,157,98,79,-54,-73,-3,73,240
172,-3507,64,69,26,-167,-150,-63,5,242
-64,-3294,-8,60,42,-158,-150,-138,-116,80
-267,-3093,-45,39,53,-65,-119,-129,-180,-94
-162,-2881,-81,-53,-48,-32,-142,-147,-164,-14
59,-2620,-74,-94,-116,6,-131,-259,-240,43
376,-2227,-87,-136,-144,54,-17,-321,-393,-139
1016,-2052,-18,-109,-108,124,83,-398,-547,-329
517,-2222,98,-14,-58,11,-55,-300,-336,-330
-533,-2229,72,10,-33,-130,-167,-172,-108,-225
-428,-2107,31,-10,-3,-110,-92,56,184,63
-390,-1994,-81,-50,-22,-77,-76,246,429,113
-236,-1881,-165,-52,-42,-81,-147,350,547,110
-485,-1782,-90,20,36,-26,-73,447,544,120
-488,-1669,-16,35,81,104,197,365,357,151
33,-1561,44,28,37,81,214,307,303,395
144,-1468,52,56,55,57,178,209,156,294
-3,-1372,13,81,96,75,189,61,-37,-73
-103,-1275,-40,54,102,63,-7,-130,-230,-365
-76,-1194,-59,6,78,57,39,-154,-268,-341
43,-1119,-27,-18,7,-7,165,21,-93,-158
131,-1031,107,29,-39,-169,-21,183,129,36
43,-937,212,124,54,-222,-191,23,49,-61
83,-812,239,155,80,-271,-369,-152,-76,-117
22,-749,67,61,25,-207,-381,-142,-122,-154
118,-720,-177,-51,-3,51,-122,-120,-211,-224
202,-730,-295,-137,-30,276,268,0,-101,-43
453,-739,-129,-119,-101,261,291,190,154,325
360,-698,0,-25,-77,137,136,84,48,290
-223,-661,38,23,-30,42,196,-57,-147,12
-231,-622,-110,-52,-76,-51,137,4,-84,-53
-104,-597,-160,2,51,-39,42,38,-16,-147
45,-545,34,103,142,-116,-43,67,77,-32
329,-501,169,36,48,-203,-85,68,143,173
281,-463,157,-20,6,-173,-141,87,224,250
-95,-418,5,-4,76,-1,-154,110,231,144
-108,-228,-176,-31,100,149,-120,67,157,72
-17,430,-144,-51,60,244,31,45,74,67
-190,1476,-48,4,76,178,58,27,-9,-18
-176,2442,13,81,89,-2,-22,-7,-87,-74
-152,2787,88,95,97,-42,-16,-97,-194,-166
-116,2647,74,66,103,64,-14,-211,-319,-264
12,2332,52,11,24,15,-68,-75,-131,-125
116,1701,114,0,-43,-23,-10,23,8,46
-151,590,144,-17,-70,12,185,-84,-185,84
-372,-483,-11,-89,-73,114,404,-284,-516,-65
-128,-1015,-218,-220,-150,105,233,-353,-536,-39
503,-1123,-220,-291,-307,-152,-120,-45,-20,408
956,-1099,-27,-210,-287,-272,-174,123,219,537
607,-1056,150,-65,-147,-211,-164,-79,59,159
-165,-1006,160,58,25,13,-52,-37,93,-187
-602,-916,27,91,109,228,105,105,251,-60
-489,-819,-38,61,76,189,102,128,234,101
-75,-587,-23,89,87,94,100,181,201,140
452,195,53,117,155,87,113,238,205,104
604,1261,129,147,204,33,27,267,179,20
132,2027,171,115,102,-221,-274,69,13,-105
-441,1905,179,118,67,-323,-380,-75,-99,-155
-624,986,-11,137,160,-166,-284,-27,-21,-38
-367,-5,-160,64,151,27,-193,-26,6,-2
-38,-772,-133,-35,22,116,-209,-32,31,3
66,-1070,-92,-81,-46,227,21,68,112,-11
-116,-1072,56,-25,-31,391,465,140,82,-127
-35,-1006,121,-8,-36,405,663,118,49,-75
475,-933,93,-17,-43,174,454,95,50,19
566,-882,80,-34,-83,-46,90,-79,-61,-56
98,-828,89,-108,-170,-191,-137,-293,-198,-44
-121,-777,31,-116,-151,-147,-97,-260,-205,112
-461,-727,-79,-82,-49,2,74,-172,-216,116
-85,-687,-23,-31,-7,31,49,-228,-239,216
177,-635,-27,-18,3,28,6,-256,-202,252
44,-559,-95,9,67,99,82,-191,-176,60
-347,-365,-230,-30,85,147,104,-157,-254,-284
-13,144,-126,-51,-13,15,31,236,102,-50
-66,301,44,24,-18,-61,-11,604,547,152
-368,-50,68,102,93,68,139,545,481,-70
-79,-386,198,210,216,160,181,334,209,-188
695,-505,303,220,161,41,-14,43,-18,-28
948,-513,211,118,19,-154,-195,14,26,180
382,-493,116,59,-12,-172,-186,81,121,209
-307,-488,-6,-1,-19,-140,-154,104,160,108
-680,-458,-63,1,-17,-84,-56,159,169,74
-635,-419,-93,-6,0,-4,184,111,54,5
-385,-385,-81,15,46,-18,180,-24,-86,-78
-177,-348,-21,50,46,-56,45,-95,-124,-78
-51,-325,52,60,9,-162,-138,11,31,61
-74,-293,36,40,23,-97,-171,17,31,35
-18,-251,27,32,45,142,14,-101,-87,-85
-220,-124,53,66,93,370,201,-131,-197,-168
-332,186,-35,27,58,420,327,-160,-300,-190
-140,445,-148,-69,-87,135,144,-157,-261,-55
-177,166,-155,-126,-144,-17,92,-109,-208,44
90,-153,0,-58,-71,-63,58,-119,-178,157
277,-292,78,30,71,87,129,-202,-254,63
160,-313,54,30,59,24,34,-13,7,42
317,-303,-12,-31,-82,-210,-228,138,345,316
444,-291,-132,-101,-131,-196,-172,23,255,386
463,-278,-82,-72,-71,-64,3,-11,182,362
524,-263,53,-18,-45,-112,-63,67,229,403
326,-251,92,-7,-45,-185,-124,91,233,297
165,-229,102,24,-5,-239,-198,92,199,236
153,-200,85,32,-3,-322,-340,107,214,223
103,-179,14,3,0,-380,-428,47,196,80
-320,-162,-89,-69,-59,-338,-309,-49,13,-209
-694,-139,-120,-83,-91,-188,-150,-50,-107,-396
-640,-120,8,-5,-33,36,-83,-39,-140,-402
-208,-48,-61,-16,-22,173,63,-54,-171,-272
42,28,-222,-88,-53,201,154,-112,-249,-77
183,108,-170,-126,-81,162,147,-131,-261,66
340,88,-6,-36,-15,131,141,-76,-168,144
72,-57,52,-6,7,161,178,-107,-189,81
-335,-145,-36,-12,14,178,221,-20,-93,44
-235,-141,-74,-5,59,186,321,117,87,105
-138,-137,-172,-25,70,175,241,102,109,41
23,-130,-128,-27,13,112,55,109,151,0
65,-115,-2,-10,10,136,51,66,135,-72
-25,-110,109,73,67,113,96,53,89,-100
80,-75,139,74,18,8,71,212,232,85
194,11,84,35,-6,-20,-14,212,260,151
336,377,17,14,-15,-43,-78,59,84,115
285,1101,-41,6,-20,-64,-113,-33,-29,110
-70,2014,-64,41,27,-4,-91,-101,-85,59
-207,2880,37,83,74,58,8,-45,-54,91
-138,3436,61,50,93,76,-1,-110,-176,-74
7,3297,-32,-45,69,91,7,-256,-356,-302
51,2706,-73,-125,-46,-5,41,-181,-229,-97
41,1604,-98,-187,-131,-91,-6,-16,9,171
60,73,-86,-170,-153,-108,-86,22,127,230
208,-845,-7,-90,-167,-206,-281,-66,51,146
263,-1076,-12,-57,-163,-238,-315,-120,-36,109
102,-1044,17,-15,-129,-223,-291,-190,-155,82
-139,-980,25,33,-44,-147,-206,-54,-40,170
-56,-910,-5,39,0,-102,-182,102,150,335
217,-853,69,87,60,10,-99,160,204,337
-172,-807,103,163,179,212,245,280,218,0
-393,-739,91,182,189,207,330,246,159,-229
-378,-685,175,184,125,38,54,71,19,-266
-208,-624,210,206,123,-72,-157,-79,-128,-292
-10,-505,213,217,157,-102,-254,-117,-174,-276
241,-300,218,226,195,-101,-232,-181,-254,-222
151,-275,89,163,157,-86,-239,-216,-283,-153
-53,-423,-15,50,64,-68,-274,-172,-214,-88
-361,-510,-199,-73,2,31,-216,-195,-211,-131
-269,-520,-270,-192,-74,143,95,-83,-99,9
226,-490,-241,-216,-122,230,552,125,77,276
438,-467,-99,-89,-26,206,551,316,309,474
380,-451,2,13,63,103,304,261,243,353
305,-440,50,-6,5,-65,58,92,117,196
273,-407,33,-55,-87,-145,-44,67,77,132
-13,-384,-76,-87,-101,-72,19,95,-14,-82
-402,-373,-187,-94,-83,20,83,80,-119,-235
-416,-337,-210,-81,-60,73,106,46,-139,-190
-248,-309,-188,-47,-9,103,135,56,-64,1
-165,-286,-123,40,28,88,95,60,14,215
-189,-262,50,103,19,62,87,32,1,247
-129,-237,326,151,5,25,-15,-199,-246,7
95,-219,323,103,-31,-85,-194,-354,-343,-265
53,-209,126,28,-33,-98,-186,-319,-287,-435
42,-205,31,63,41,-40,-28,-112,-53,-394
-64,-192,-35,57,143,47,90,4,79,-370
36,-189,0,113,140,-66,-117,21,144,-202
-44,-192,147,218,128,-190,-294,70,293,90
264,-182,131,169,21,-244,-248,121,307,234
536,-176,237,154,-49,-110,-73,128,248,170
200,-163,253,85,-65,153,146,-10,15,-108
-135,-150,43,8,-65,118,92,-99,-119,-291
-303,-144,-171,-113,-74,-2,58,-160,-206,-382
-449,-137,-440,-229,-15,12,127,-205,-335,-463
-586,-125,-569,-172,179,225,263,-116,-362,-484
-299,-123,-585,-165,178,213,211,223,-31,-172
301,-101,-318,-138,-37,-146,-106,565,512,381
160,-79,38,-67,-103,-168,-62,374,379,339
-77,-74,56,-43,-68,-2,140,15,1,187
252,-71,73,1,-110,-27,-49,-167,-110,303
699,-73,80,16,-144,-47,-181,-8,103,445
595,-73,1,54,-25,37,-81,145,237,304
482,-74,-106,18,12,-18,-40,76,150,124
686,-75,-175,-1,12,-166,-86,101,258,243
370,-91,9,-7,21,-206,-144,95,295,310
-269,-111,192,-64,-51,-150,-115,-39,74,149
-709,-101,151,-173,-139,-25,-32,-171,-196,-170
-523,-107,249,-162,-100,176,71,-165,-306,-322
-228,-105,429,-11,22,299,171,-27,-193,-277
-104,-91,479,121,132,311,267,75,-91,-214
-212,-86,361,133,131,209,275,106,13,-24
-255,-64,165,-32,-28,-10,127,105,138,110
-279,-62,16,-96,-70,-65,14,0,138,116
-180,-59,-119,-130,-68,-55,-18,0,201,214
0,-46,-113,-137,-79,-79,6,118,308,377
125,-29,-27,-54,-51,-64,29,107,191,391
56,-27,50,167,70,-15,-10,-9,0,209
-9,-20,42,345,183,7,-85,-77,-103,-53
244,-16,-5,276,112,-148,-178,-19,-35,-222
597,-22,81,74,-15,-318,-310,-140,-149,-270
478,-31,151,-64,-69,-352,-377,-169,-124,-223
277,-34,56,-144,-118,-284,-276,30,112,-132
-102,-49,-47,-225,-112,4,-26,1,19,-277
-489,-49,-182,-323,-129,335,314,-7,-74,-297
-99,-41,-136,-301,-90,413,491,76,20,-226
114,-43,-64,-216,-53,136,250,84,158,-117
221,-50,39,-152,-76,-89,-37,0,144,202
400,-48,116,-82,-64,-85,-129,-56,39,384
290,-45,178,-4,10,62,-34,63,38,218
284,-44,252,113,121,135,38,193,56,71
-193,-38,216,142,183,196,203,196,45,-106
-732,-36,33,80,142,215,341,57,-42,-228
-583,-28,-35,-5,24,85,124,-133,-144,-161
-382,-28,15,-1,-9,-7,-72,-208,-198,-113
-341,-31,-37,-11,0,-26,-142,-179,-185,-90
-30,-23,-82,-29,1,-13,-92,-88,-118,26
148,-26,12,55,74,-10,-110,-196,-254,-9
48,-37,74,115,159,-87,-314,-352,-354,-87
-20,-39,30,67,50,-223,-451,-185,-43,118
57,-33,42,62,-3,-264,-313,108,258,327
-14,-32,-72,23,18,-169,-15,116,203,206
-25,-30,-179,-34,-53,-93,-13,-6,18,103
0,-26,-279,-144,-165,-117,-156,-32,-2,49
-50,-29,-468,-418,-317,-40,61,30,17,-13
161,-40,-573,-589,-423,-11,272,99,30,171
445,-39,-240,-333,-302,51,384,-81,-172,325
378,-34,83,34,38,278,376,-240,-323,353
440,-20,130,127,203,401,372,-49,-98,476
694,-10,135,53,66,135,167,417,440,764
491,-15,74,7,29,19,69,565,612,740
-169,-17,-38,-53,58,74,63,296,269,30
-709,-21,-2,3,65,9,-85,63,-8,-629
-711,-33,-22,7,23,-76,-180,-12,-83,-764
-439,-38,46,42,29,-94,-174,20,-3,-579
-270,-32,173,125,100,-63,-167,80,89,-511
-152,-14,194,160,114,-42,-189,43,21,-412
-54,-5,99,93,56,-68,-182,-77,-63,-229
51,-6,62,62,27,-57,-52,-93,-46,-77
222,0,103,100,68,-27,-52,-40,-11,-5
176,3,83,88,76,1,-109,-15,6,60
0,6,37,20,37,82,74,-25,-67,42
-137,0,-17,-34,-30,41,160,-58,-126,-19
-177,4,-165,-104,-104,-78,-29,-73,-65,0
-104,18,-308,-127,-102,-80,-107,-130,-76,57
-96,20,-224,-93,-49,62,58,-227,-233,20
-67,28,-90,-32,1,208,212,-287,-369,-60
-16,29,-18,47,61,196,174,-247,-376,-148
-138,32,-47,70,100,102,72,-154,-294,-236
20,34,17,-6,-11,-139,-156,115,77,-12
237,20,166,15,-63,-313,-290,316,312,193
124,7,100,19,-41,-289,-221,318,223,89
49,3,-138,-16,-62,-263,-211,247,196,3
-30,8,-230,-52,-65,-161,-155,147,143,-25
-255,8,-212,-94,-66,75,32,-44,-45,-184
-372,10,-153,-121,-57,296,170,-182,-202,-271
15,15,-102,-103,-73,237,130,4,35,-25
482,31,-61,-106,-129,59,158,309,385,311
492,37,33,4,-35,69,200,308,318,350
170,41,180,189,155,210,236,174,113,49
-239,56,229,241,212,293,294,131,16,-167
-288,65,177,130,78,116,100,72,31,-23
-225,72,72,53,5,-15,-47,0,27,166
-92,76,-39,-34,-55,-48,-85,-57,24,335
65,64,109,-4,-78,-80,-150,-170,-51,360
201,52,263,110,5,-51,-126,-97,59,288
371,48,231,143,56,18,-21,-21,67,59
572,44,102,78,-11,-46,-92,-150,-137,-154
788,37,18,-19,-102,-153,-212,-331,-347,-262
653,27,13,17,-10,-75,-144,-215,-264,-109
-143,24,48,151,175,90,-44,-13,-123,-166
-442,35,117,245,225,102,27,229,139,-189
-624,38,53,196,125,-37,-36,217,182,-133
-562,44,19,149,2,-194,-186,-22,-21,-201
-367,67,41,138,0,-208,-174,-11,7,-230
-363,163,-36,93,6,-56,-57,-23,20,-204
-173,842,45,214,29,-16,-85,-31,61,-58
105,2348,-6,273,27,-49,-138,-17,69,85
229,3824,-43,117,4,138,-11,1,44,122
235,4889,-44,-23,23,370,240,64,27,118
164,5630,-7,-55,56,321,255,115,61,169
39,5935,-5,-66,33,114,74,142,95,173
-184,5811,-1,-84,-48,-40,-64,55,-27,102
-125,5365,7,-48,-69,-80,-58,-37,-115,30
43,4777,26,-8,-37,-96,-84,-106,-161,-19
-104,4095,6,27,8,-59,-121,-205,-264,-138
-367,3428,-14,37,3,-118,-206,-202,-231,-147
-199,2935,14,44,-26,-218,-323,-144,-35,-56
86,2600,12,48,-19,-138,-242,-58,148,-69
166,2570,69,127,18,90,32,13,129,-134
110,2832,37,126,-22,229,210,26,4,-132
190,3277,-39,-25,-118,235,365,41,-65,-150
95,3724,-153,-104,-103,198,494,82,-21,-151
-117,4235,-265,-71,12,154,319,-64,-125,-125
-24,4885,-295,-61,116,247,281,-170,-232,-5
-107,5563,-65,-25,49,191,167,-137,-161,74
-59,6346,95,-21,-123,-85,-145,-20,62,271
-186,6564,95,-116,-222,-177,-234,156,297,419
-362,6248,60,-159,-207,-172,-259,156,265,320
-356,5456,-118,-198,-182,-156,-168,112,171,221
130,4485,-79,-114,-150,-194,-217,31,98,257
464,3498,113,28,-65,-142,-226,-16,42,78
571,2411,277,130,37,-48,-115,15,31,-128
165,1312,385,231,138,23,-18,46,-18,-294
-114,562,324,220,133,-8,-78,-17,-84,-272
149,299,12,19,30,-30,-62,-85,-131,6
98,93,-275,-59,56,77,131,37,-41,43
-113,13,-179,78,182,98,173,130,51,-19
-224,397,66,215,223,32,15,33,-15,5
-63,1006,106,157,157,30,-91,-70,-88,4
85,1572,72,27,101,209,53,-137,-171,-73
10,2241,1,-65,43,359,193,-101,-158,-154
-2,2977,-32,-93,-52,195,85,62,33,-85
-40,3324,-61,-71,-61,70,47,141,127,-74
-303,2995,-106,-58,-42,3,45,50,130,-157
-368,2262,-100,-55,-40,-37,32,-67,72,-203
192,1330,15,-25,-73,-140,-59,-49,144,17
535,319,112,8,-62,-167,-93,-87,93,196
372,-732,56,3,-2,-28,18,-132,-33,186
306,-1648,8,-60,-57,67,212,43,73,353
536,-2195,47,-90,-124,-10,147,162,144,510
314,-2759,-6,-71,-53,-9,126,40,-69,200
-188,-3231,19,20,39,-61,10,-111,-249,-158
-212,-3352,131,107,78,-153,-159,-12,-39,-75
-213,-3099,155,142,95,-157,-243,111,158,-21
-109,-2371,85,72,51,-149,-300,94,141,-25
-108,-1662,29,23,23,-46,-216,57,68,-110
25,-785,15,6,9,85,-29,55,68,-103
5,178,-29,-17,28,167,95,110,99,-166
-195,907,-85,-50,25,164,262,125,27,-331
-243,1147,-71,-44,3,129,326,57,-95,-374
-106,1003,-14,14,29,37,83,-32,-136,-185
-56,620,70,64,47,-89,-107,-101,-162,-64
-23,-148,37,38,39,-140,-115,-119,-170,0
53,-1027,-13,-11,-12,-141,-52,-54,-95,107
173,-1736,-57,-54,-81,-115,29,29,-16,203
152,-2483,-165,-115,-79,67,212,4,-31,146
87,-3038,-119,-93,-28,238,289,-34,-47,62
114,-3179,0,8,51,247,235,12,50,1
189,-2889,20,51,91,125,161,36,70,6
150,-2386,-15,24,55,41,76,-44,-10,21
113,-1552,-94,-69,-45,-67,-6,-125,-35,16
70,-583,-188,-99,-31,-61,7,-234,-166,-118
152,334,-191,-91,-4,-53,-20,-298,-249,-205
101,1355,-166,-139,-109,-167,-75,-116,-110,-124
-220,2211,-115,-61,-26,-56,-27,-174,-214,-282
-557,2642,-104,38,137,145,44,-331,-402,-387
-660,2545,-84,26,88,136,86,-115,-167,-131
-480,2007,-42,16,23,82,38,-6,-66,-21
-6,1220,15,-32,-79,0,-25,23,-8,-39
70,290,72,-14,-91,-102,-140,162,143,-111
-61,-578,98,15,-48,-132,-121,135,82,-141
163,-1235,113,-19,-129,-244,-146,246,310,246
58,-1913,6,-37,-81,-111,-11,296,412,351
-121,-2388,2,-7,-56,-130,-2,448,587,428
-100,-2507,200,159,55,-194,-171,370,536,341
-138,-2293,224,246,148,-186,-256,158,248,-62
149,-1587,212,197,97,-260,-327,47,-10,-388
510,-629,303,157,32,-317,-405,-57,-203,-474
523,78,229,102,-20,-299,-522,-76,-211,-251
152,693,64,32,-8,-93,-258,1,-141,-145
-249,1333,-123,118,148,151,80,138,-2,-50
-215,1987,-203,162,217,165,95,200,151,168
98,2574,-60,138,161,64,66,133,168,240
312,2644,46,101,103,37,11,17,94,196
159,2217,-57,-27,18,142,130,-37,-61,57
-409,1410,-241,-182,-63,384,443,-61,-200,-149
-240,733,-136,-161,-95,347,330,-124,-239,-101
207,249,-8,-61,-49,178,160,-93,-162,92
332,-181,-16,-54,-47,40,76,-69,-119,134
841,-192,-37,-94,-122,-26,57,-96,-89,321
724,-158,-144,-147,-147,22,182,-31,0,515
-182,107,-193,-172,-132,26,164,29,61,428
-658,909,-21,-86,-80,22,124,43,50,199
-548,1857,87,36,54,113,155,165,152,-5
-623,2321,3,121,182,184,211,280,239,-276
-467,2071,-32,126,186,82,143,248,158,-409
-139,2059,3,88,130,-86,5,166,67,-320
101,3028,-37,3,18,-252,-159,42,3,-147
135,3957,-55,-34,-69,-261,-202,-86,-115,-37
1,4903,-162,-90,-124,-128,-110,-207,-256,-90
66,6068,-285,-124,-148,6,-80,-264,-334,-119
73,6877,-149,-12,-31,214,65,-277,-396,-139
-2,7159,-33,42,56,439,329,-184,-312,-97
-32,6636,43,59,97,434,347,-6,-65,58
-36,5381,39,68,120,304,374,48,-49,69
142,4204,-15,21,15,45,254,136,33,98
100,3597,-49,-15,-75,-121,61,241,189,130
-3,3316,21,-38,-93,-112,8,215,228,78
-48,3127,71,-19,-67,-123,-87,146,269,114
-2,3373,110,24,-48,-149,-170,32,156,164
232,3890,176,57,0,-115,-180,-30,71,207
120,4373,187,91,51,-83,-230,-27,78,254
-98,4864,210,139,55,-97,-304,-20,7,158
-279,5454,236,161,33,-78,-283,-107,-195,-204
-334,5989,10,-6,-78,-19,-102,-231,-330,-415
-28,6113,-74,-89,-132,15,30,-210,-256,-295
377,5635,53,-1,-66,35,42,-139,-115,-47
560,4869,81,37,-15,8,11,-6,67,171
257,3968,76,43,38,23,16,-18,24,40
-16,2854,111,68,82,74,66,11,-7,-152
-133,1673,101,66,67,81,97,97,71,-207
-261,581,-18,13,24,49,58,75,75,-98
-187,-333,-112,-9,33,5,56,103,104,1
-96,-1047,-168,-2,-2,-75,96,140,111,13
-118,-1416,-178,49,-65,-107,61,202,243,128
-70,-1457,-63,68,-99,-50,69,152,202,109
173,-1380,101,27,-119,-51,33,-30,-32,8
457,-1013,115,-42,-113,-55,-10,-188,-188,-22
568,-618,83,-18,-31,-79,-68,-263,-255,48
293,-168,39,-8,8,-238,-326,-245,-128,257
48,490,-119,-55,-13,-254,-299,-32,134,387
-247,1168,-119,-68,7,-117,-87,193,298,311
-559,1644,-95,-55,35,58,-32,121,159,-14
-509,1747,-97,-73,-5,129,-86,-5,25,-279
-346,1595,-201,-101,-51,62,-95,-85,-64,-454
-93,1073,-206,-108,-83,39,-44,-89,-61,-396
106,228,-42,-50,-55,80,-36,-35,1,-131
85,-525,92,6,-27,18,-53,-30,13,58
-35,-1102,108,-1,0,70,151,-74,-92,10
-12,-1526,79,44,62,80,179,-156,-171,-49
39,-1845,-35,66,113,4,55,-200,-154,17
-1,-1800,10,58,139,57,139,-253,-231,4
-66,-1417,-22,-3,108,114,188,-366,-406,-64
8,-749,-142,-85,21,105,176,-353,-414,11
50,94,-122,-92,25,167,194,-340,-362,57
192,909,106,-28,49,99,62,-273,-192,158
59,1635,120,-8,19,31,12,-102,-45,180
-204,2293,-98,-48,21,24,21,-36,-69,42
-145,3003,-268,-164,-112,-157,-149,19,77,114
113,3279,-246,-213,-225,-361,-336,193,490,207
341,3061,-70,-111,-178,-430,-430,322,746,169
467,2671,178,32,-53,-383,-430,255,568,75
546,1987,339,173,79,-288,-398,188,336,-13
71,993,246,207,156,-137,-300,214,218,-125
-676,100,-32,102,136,154,20,191,92,-307
-587,-386,-27,46,97,339,213,164,69,-246
-317,-671,86,18,27,223,153,98,23,-111
-138,-736,152,30,-17,-9,94,55,8,-53
-137,-651,53,24,-22,30,384,107,11,-39
-107,-430,-9,-7,0,267,590,139,19,-3
-42,33,41,-20,-8,221,359,87,26,51
-3,605,-12,-71,-69,27,129,68,40,93
101,1150,-56,-80,-84,-68,-10,-30,-40,92
257,1766,-120,-107,-114,-123,-70,-91,-60,160
381,2355,-174,-153,-138,-123,-101,-141,-67,250
452,2734,-166,-178,-145,-132,-177,-90,10,406
404,2599,-127,-121,-85,-55,-54,-36,19,463
150,2145,-37,-17,16,38,179,-50,-121,221
-149,1401,28,55,94,119,197,-48,-154,-63
-196,448,-4,23,49,115,106,-18,-81,-127
-272,-441,-74,-34,-9,127,74,22,11,-1
-390,-1342,-187,-57,2,225,177,59,41,45
-339,-2176,-126,-19,32,219,262,81,34,81
-195,-2803,5,55,95,182,348,154,78,86
-186,-3009,141,139,163,186,242,43,22,-123
-9,-2652,102,47,65,31,4,-106,-81,-370
91,-2082,-29,-40,-52,-126,-143,-56,-35,-409
-23,-1322,-22,-41,-65,-147,-183,22,-48,-455
-26,-661,49,-9,-32,-90,-146,98,-72,-337
76,-54,92,4,6,-30,-102,132,-116,-179
169,706,133,30,13,-29,-117,78,-202,-139
46,1316,75,37,6,-62,-216,-86,-287,-132
-110,1334,-31,-16,-7,-51,-170,-137,-211,-96
-146,863,-13,-40,-3,-10,-59,-142,-139,-65
39,127,27,-25,-2,-8,-44,-100,-82,55
42,-1071,55,54,56,2,-81,-150,-149,-3
78,-2261,110,54,30,-73,-191,-262,-209,-60
456,-3231,100,8,-65,-169,-202,-135,-56,100
842,-4162,134,42,-52,-160,-152,103,177,239
833,-5052,124,39,-34,-82,-91,208,300,345
308,-5687,72,-1,-26,6,-44,156,299,308
-402,-5993,-14,-25,15,126,120,101,221,138
-813,-6071,-38,-42,22,146,220,162,228,98
-558,-5736,14,-38,1,122,185,172,180,93
-192,-5150,28,8,51,129,194,143,138,-54
-87,-4431,10,31,86,105,160,123,85,-183
-193,-3559,-69,6,75,67,75,33,-56,-146
-135,-2492,-168,-52,-13,-28,-22,-14,-116,-3
46,-1654,-116,-64,-68,-122,-146,37,-20,120
125,-1506,-26,-25,-52,-115,-192,26,1,150
102,-1825,-60,23,23,0,-47,21,-19,65
92,-2314,-80,60,71,48,34,-8,-74,-56
15,-3135,11,48,36,-35,-82,-53,-100,-81
-58,-3891,2,-18,-45,-139,-254,-147,-129,-18
316,-4357,-91,-63,-112,-163,-356,-226,-154,164
634,-4904,-89,-104,-131,-35,-124,-233,-212,232
221,-5973,24,-48,-48,130,207,-162,-166,151
-165,-7264,112,10,-20,40,114,-68,12,201
-265,-8305,186,53,21,-57,-45,23,146,275
-282,-8255,78,7,32,-74,-33,0,81,173
-71,-6855,87,-16,4,-64,9,-43,37,-33
-104,-4872,127,51,30,-43,22,-19,6,-221
-168,-3467,-60,46,66,14,37,72,4,-223
-123,-2696,-238,-64,32,74,196,150,23,-151
-159,-2168,-259,-147,-15,141,297,208,38,-137
-266,-1637,-207,-138,-49,72,169,249,196,28
-164,-1188,-102,-67,-80,-107,-62,177,287,223
146,-876,111,134,32,-144,-251,2,140,147
90,-1284,206,266,175,-40,-264,-51,-28,-136
146,-2320,59,199,151,23,-217,105,82,-94
317,-3342,46,245,92,-64,-317,129,175,41
144,-4147,163,239,59,-152,-270,50,102,8
80,-4681,369,111,-32,-174,-136,15,59,6
26,-4910,304,2,-73,-83,161,1,2,-24
82,-4764,18,-120,-79,118,460,9,-86,-29
205,-4344,-111,-196,-37,282,462,-37,-144,41
332,-3555,-33,-211,-71,250,319,-21,-56,214
361,-2492,60,-149,-97,187,197,49,61,315
276,-1503,111,-15,-24,197,161,12,-20,244
289,-910,251,135,121,232,246,46,-29,156
-286,-566,257,180,206,250,285,133,47,18
-451,309,-93,-24,92,156,151,132,61,43
-336,1208,-331,-150,-5,39,1,75,25,60
-387,1434,-354,-192,-78,-17,-34,-22,-71,-98
-176,1276,-403,-243,-151,-42,-44,-115,-171,-185
-82,921,-333,-201,-89,12,47,-78,-158,-193
-184,316,-184,-82,1,78,121,11,-84,-158
-73,-146,52,39,0,-9,21,13,-43,-61
92,-504,118,76,8,-66,-40,-48,-74,179
11,-550,83,55,11,-65,-29,-35,-76,287
-159,284,14,67,19,-82,-61,-54,-107,37
61,3213,5,56,-32,-130,-167,-161,-198,-63
349,5220,59,31,-79,-168,-251,-265,-236,-5
431,5574,-28,7,-71,-91,-167,-256,-183,-1
477,5898,-33,-26,-56,58,0,-105,-37,6
0,5930,-100,-20,17,291,295,30,-74,-144
-616,6148,-53,46,60,259,296,24,-216,-204
-763,6379,26,101,76,73,8,-68,-220,-143
-357,6282,68,83,5,-50,-159,22,20,14
-62,5612,23,-6,-94,-96,-154,149,223,67
54,4641,26,2,-93,-104,-173,14,150,-44
31,3435,-32,-16,-105,-125,-214,-154,-39,-74
60,1925,-157,-123,-194,-106,-56,-116,-32,91
420,410,-127,-148,-239,-132,-42,1,119,433
741,-1037,-34,-98,-198,-159,-127,48,219,784
563,-2452,-26,-48,-106,-127,-52,111,243,846
38,-3650,-10,24,2,-26,63,224,298,504
-216,-4361,39,103,105,96,141,345,373,49
-378,-4677,38,100,126,128,158,371,399,-317
-513,-4804,63,109,137,118,147,312,273,-598
-264,-4446,121,120,148,102,119,222,121,-478
51,-3913,112,74,104,68,70,106,25,-222
93,-3189,76,51,69,27,44,-10,-106,-287
247,-2217,54,65,51,-10,-35,-118,-180,-332
216,-1560,9,94,100,52,20,-145,-208,-283
-142,-1249,-177,35,119,137,164,-130,-280,-417
-235,-1140,-348,-52,122,222,231,-178,-360,-484
118,-1082,-164,-117,-46,27,-6,-2,-17,-22
690,-1326,119,-84,-154,-221,-289,51,158,344
1084,-1841,278,45,-28,-174,-253,-198,-126,183
917,-2430,241,100,84,-65,-164,-298,-291,-84
193,-3128,69,30,43,-114,-209,-193,-167,-121
-745,-3745,-42,-33,-19,-189,-272,-113,-31,-38
-942,-3880,-61,-54,-36,-155,-230,-51,95,55
-479,-3329,-102,-109,-96,-113,-134,8,156,87
-136,-2538,-116,-135,-93,17,47,-5,113,62
20,-1755,-174,-139,-85,57,157,16,58,198
40,-790,-115,-87,-76,-31,143,86,48,328
-45,103,26,-1,-45,-82,69,123,94,285
-28,1120,98,25,-23,-103,-1,61,58,181
-1,2196,196,94,43,-139,-111,3,-12,-79
81,3012,213,139,99,-205,-215,67,51,-268
189,3312,146,125,131,-278,-303,53,46,-288
133,3193,215,175,144,-344,-407,9,0,-230
121,2821,298,213,122,-454,-616,-74,-29,-137
-147,1933,210,164,129,-250,-541,-255,-204,-324
-437,930,-2,10,62,188,-96,-192,-177,-357
-299,255,-115,-106,-54,447,208,26,68,-62
-192,-324,-125,-106,-90,423,368,107,125,61
-130,-843,-132,-105,-85,270,468,95,90,119
63,-1129,-138,-80,-28,293,571,121,132,239
224,-1092,-101,-28,29,332,543,193,227,365
216,-868,20,60,96,226,318,137,208,266
184,-238,87,76,71,47,61,-6,55,62
121,575,28,2,-11,-103,-115,-70,-30,-167
25,1195,-37,-18,-23,-137,-54,-26,-82,-338
-30,1911,-84,-13,-11,-167,-76,24,-51,-233
105,2634,-9,0,-21,-209,-253,42,72,69
190,2859,161,94,104,35,37,95,73,164
-93,2543,209,172,232,237,330,52,-104,-3
-219,2221,113,115,186,251,215,-145,-283,-137
37,1724,63,69,89,217,93,-179,-250,-83
257,776,27,71,123,236,52,-225,-292,-244
440,-123,-41,-61,-31,190,161,-138,-221,-225
293,-950,-144,-197,-232,20,117,143,128,88
-92,-1821,-227,-234,-274,-81,54,113,104,159
-237,-2581,-116,-138,-214,-191,-14,-68,-46,157
-44,-2970,-37,-48,-139,-244,-94,-81,0,213
284,-2748,4,-21,-96,-242,-143,35,137,267
175,-2465,122,42,-19,-253,-192,121,165,146
-356,-2024,208,72,4,-267,-279,18,44,-172
-438,-1415,166,64,53,-63,-89,18,-20,-316
-214,-668,56,79,137,167,110,104,5,-182
-7,402,-55,79,124,179,123,78,15,-31
-64,1260,-36,83,117,227,105,-7,-61,-112
-244,1571,-91,-23,29,286,75,-70,-166,-153
-225,1357,-162,-125,-72,128,-67,-289,-437,-158
-91,780,-251,-222,-134,28,134,-351,-545,-168
266,-133,-261,-241,-138,43,229,-149,-213,18
372,-1374,-176,-167,-134,-51,22,145,224,217
273,-2657,105,21,16,44,29,196,309,252
394,-3357,127,30,24,15,47,102,188,348
413,-3506,-36,-96,-130,-212,-136,10,105,316
98,-3540,8,-119,-178,-347,-335,-157,-59,126
-115,-3103,-77,-226,-281,-440,-466,-197,-86,64
438,-2265,-142,-322,-372,-492,-539,-237,-93,135
1143,-1488,83,-134,-175,-288,-380,-169,-39,151
1052,-1114,335,159,145,93,7,84,179,-28
18,-927,281,325,359,415,346,370,441,-200
-1440,-297,176,394,460,527,437,460,455,-406
-1515,997,118,303,363,391,401,330,289,-302
-1048,2143,35,159,181,132,196,149,99,-197
-708,2507,47,120,113,-36,-65,29,-14,-121
-372,2347,54,75,73,-20,-39,-25,-80,14
-253,1682,4,16,60,111,260,-97,-225,-57
-351,473,-117,-12,120,303,306,-274,-450,-328
-270,-699,-88,-31,118,246,34,-254,-299,-296
25,-1422,11,-109,-87,-80,-92,35,135,22
218,-2039,109,-59,-126,-267,-41,192,372,199
262,-2981,83,-11,-66,-266,-156,22,206,106
163,-3617,-35,-68,-93,-166,-187,-61,45,1
18,-3319,-115,-146,-161,-58,-54,-102,-119,-163
106,-2741,-126,-178,-158,-33,-33,-169,-198,-225
339,-2391,-110,-149,-117,-52,-116,-91,17,118
431,-2709,-127,-149,-130,-126,-213,-110,91,303
347,-3096,-71,-176,-143,-163,-205,-177,-20,215
264,-3173,33,-111,-62,-150,-229,-120,-49,167
52,-2988,68,33,66,-50,-66,123,2,12
-302,-2816,98,129,141,37,178,326,54,-262
7,-2664,247,148,134,6,104,186,-44,-277
661,-2495,241,107,78,-35,-23,-44,-107,-47
669,-2366,213,107,83,35,-20,-124,-36,-7
167,-2233,256,133,142,148,50,-95,52,-164
-238,-2104,256,109,149,201,132,-38,81,-185
120,-1967,-113,-71,51,116,176,26,134,139
271,-1856,-689,-341,-105,11,132,92,232,325
-195,-1738,-768,-391,-167,-44,72,68,175,279
-308,-1629,-436,-288,-175,-116,-30,-42,55,223
24,-1530,-164,-135,-49,-29,14,-35,7,90
-37,-1438,-16,52,179,213,238,126,128,-27
-462,-1348,22,92,153,169,205,169,193,-111
-515,-1249,44,80,25,-16,41,84,87,-175
-461,-1128,50,114,48,-38,15,-9,-44,-204
-370,-757,40,133,108,6,23,-60,-153,-340
-198,235,65,136,106,5,-45,-66,-175,-327
-125,1125,38,122,57,-55,-126,-31,-94,-125
-57,1536,-38,18,-67,-163,-244,-133,-135,2
138,1480,-48,-50,-134,-238,-330,-212,-193,34
124,606,8,-13,-60,-147,-279,-111,-100,101
41,-586,143,38,-21,-59,-117,17,29,135
88,-1140,267,67,-17,-85,-56,54,83,109
222,-1196,223,18,-94,-238,-256,-107,-16,120
505,-1155,16,-51,-124,-244,-334,-275,-178,75
918,-1097,-148,-23,24,120,51,-283,-253,-2
915,-1029,-182,30,171,515,565,-102,-196,12
242,-966,-89,72,203,472,492,8,-97,22
-368,-897,-85,-25,18,107,83,-2,-8,95
-657,-799,-85,-129,-157,-116,-32,64,101,264
-590,-644,-25,-113,-160,-136,30,73,152,485
-243,-243,3,-68,-123,-92,-25,25,172,544
129,521,22,-35,-89,-54,-50,-18,165,372
445,1142,139,64,5,0,0,-1,156,104
149,762,171,122,80,53,64,44,98,-356
-363,-54,39,99,78,59,57,33,0,-681
-657,-536,5,101,73,-10,12,84,11,-563
-611,-804,62,111,95,-50,13,148,95,-273
-405,-841,88,120,114,-70,-24,125,150,-108
-117,-807,-30,98,112,-117,-162,74,122,4
46,-746,-137,45,98,-122,-242,78,123,86
134,-706,-97,3,56,-120,-256,85,142,109
216,-670,23,30,38,-167,-321,39,123,20
300,-642,128,87,42,-241,-413,-1,107,25
246,-610,50,-6,-26,-241,-242,-79,1,43
133,-566,-162,-173,-115,-49,202,-227,-275,-76
59,-539,-261,-224,-135,87,395,-281,-371,-67
-77,-512,-210,-151,-110,14,182,-147,-195,27
-177,-465,-157,-58,-38,41,40,-105,-178,-62
-206,-417,-134,-12,15,159,128,-143,-298,-166
-161,-390,-181,-109,-41,354,476,-137,-392,-68
-55,-362,-88,-118,-56,349,446,-266,-469,0
-109,-332,54,-49,-22,131,254,-255,-344,13
-134,-321,70,-43,-2,2,168,-62,-68,118
189,-315,98,8,14,-52,35,121,242,339
255,-305,92,68,40,-75,6,339,538,524
79,-284,52,48,39,-70,-5,291,452,285
101,-265,63,29,-14,-168,-160,146,374,-39
106,-252,50,26,-39,-172,-164,192,484,-116
3,-237,49,36,12,-26,-46,247,370,-148
94,-224,104,65,56,72,-16,158,123,-232
320,-201,177,104,59,53,-24,23,-65,-154
403,-175,165,89,48,-2,23,-12,-96,-20
108,-84,149,114,82,21,39,-39,-81,-57
-299,448,42,105,117,93,34,-82,-98,-118
-246,1899,-71,31,78,139,4,-87,-150,-94
-157,3362,-162,-18,59,145,-23,-89,-181,-55
-191,4040,-267,-92,14,161,12,-68,-156,15
-70,4052,-193,-79,-46,33,-101,-29,-34,209
190,3617,-32,-44,-71,-41,-107,-69,-72,291
271,2799,17,-27,-62,7,100,19,-109,169
292,2035,31,-25,-83,-18,84,146,34,169
352,1361,-18,-96,-171,-163,-133,38,46,128
316,774,-35,-127,-212,-254,-251,-64,-39,-19
126,443,54,-41,-129,-209,-176,33,126,50
27,580,112,21,-65,-130,-98,75,289,137
-44,1062,160,82,4,-63,-42,56,213,38
-314,1036,217,159,74,0,-2,14,0,-186
-265,1121,265,194,95,25,-22,-31,-107,-260
36,2096,255,194,74,-32,-115,-51,-104,-91
388,3074,136,113,5,-125,-204,-77,-87,145
386,4102,129,86,-29,-169,-272,-90,-51,263
182,5200,292,165,28,-132,-265,-77,-20,235
-290,5711,296,210,130,24,-135,-4,-5,-48
-659,5543,71,142,115,179,30,64,-21,-288
-401,5491,-114,26,29,232,113,-17,-143,-346
-204,5350,-157,-50,-37,183,142,-55,-202,-292
-204,4781,-120,-56,-50,93,137,-21,-151,-214
-200,4115,-94,-58,-42,91,123,44,-80,-103
-290,3451,-132,-63,-30,93,113,58,-103,-23
-304,2821,-282,-72,-7,33,51,55,-135,105
128,2457,-330,-67,-60,-110,-103,171,28,424
462,2393,-132,-14,-53,-108,-93,242,176,542
398,2403,1,74,57,35,59,250,227,304
318,2637,141,127,79,6,30,120,200,78
372,3227,176,120,66,-21,30,-80,13,-23
65,3816,143,121,106,72,65,-198,-167,-235
-305,4423,61,72,99,116,17,-140,-176,-371
-448,5270,-126,-54,-39,52,-14,44,-41,-208
-344,6152,-260,-105,-90,83,4,151,79,40
-24,6617,-118,-35,-30,89,-47,163,158,241
155,6491,80,48,22,71,-83,92,96,236
129,5983,188,76,42,90,18,97,77,152
53,5054,249,103,56,29,9,134,102,65
66,3855,255,117,70,-93,-30,173,98,-90
140,2735,209,87,36,-142,-42,76,-17,-196
251,1807,167,3,-19,-119,-79,-94,-181,-201
405,1052,116,-66,-73,-35,-66,-175,-273,-158
323,452,-123,-164,-127,35,-5,-167,-250,-98
-240,179,-436,-251,-156,105,67,-137,-206,-82
-389,189,-300,-197,-110,144,155,-73,-124,6
64,503,-22,-93,-84,35,169,6,-15,120
482,921,-96,-69,-52,-31,117,-8,-10,63
726,1470,-132,-90,-48,15,96,-26,-62,142
378,2036,-69,-45,-3,56,93,19,2,141
-673,2380,-138,5,103,153,190,87,62,-68
-1026,2899,-123,43,165,164,208,115,101,-153
-637,3302,26,133,225,178,170,57,72,-196
-423,3283,0,97,171,105,81,38,58,-173
-242,2945,-17,9,48,-50,-80,45,95,-4
-71,2201,-4,-33,-21,-167,-220,112,220,206
17,1306,34,-13,-3,-171,-244,198,342,382
40,442,17,-13,24,-80,-150,178,352,414
119,-314,-32,-46,-30,-84,-63,125,278,325
353,-906,-19,-30,-94,-97,-90,117,249,270
641,-1300,66,60,15,68,39,107,110,-13
634,-1323,80,153,137,149,243,-64,-235,-515
42,-1391,-57,113,134,273,490,-31,-329,-714
-817,-1260,-129,45,95,279,380,108,-175,-535
-713,-646,-159,14,28,113,89,98,-62,-187
-62,137,-83,-44,-48,-31,-25,80,32,99
125,976,100,-113,-114,-73,-28,-28,-61,93
-26,1642,63,-82,-71,0,1,-181,-265,-37
-252,1879,-9,-20,9,52,38,-231,-352,-59
-279,1730,-62,-22,-25,-14,7,-62,-175,69
-42,1348,-227,-80,-50,15,9,-92,-150,-12
201,652,-186,-68,-55,4,-70,-143,-27,61
459,-257,30,-21,-116,-203,-235,32,317,339
164,-1309,118,-17,-106,-185,-159,19,262,118
-224,-2260,45,-54,-95,-153,-120,-92,72,-217
-76,-2839,63,-37,-92,-206,-162,-128,57,-226
216,-3152,132,14,-65,-243,-182,-34,184,16
220,-3230,137,24,-17,-177,-119,29,208,122
47,-3123,141,62,50,-66,-62,22,83,56
6,-2742,171,101,90,26,-46,38,-35,-7
-20,-1995,110,60,60,79,-24,20,-93,-72
-84,-1176,53,9,23,73,-29,38,-97,-75
-163,-317,17,9,35,63,-3,83,-77,-89
-100,689,-63,-28,28,29,-42,82,-30,-96
-64,1589,-125,-60,7,55,17,40,-21,-163
-34,2088,-53,-22,6,117,178,-62,-95,-203
-3,2067,47,24,-3,51,35,-111,-88,-95
-27,1699,93,-17,-81,-149,-204,-179,-128,-20
-117,933,104,-79,-130,-266,-302,-308,-282,-109
-98,-108,75,-95,-91,-248,-315,-445,-428,-203
390,-972,-28,-132,-128,-371,-454,-389,-273,14
1276,-1784,37,-3,-56,-430,-503,-175,66,413
1412,-2595,304,213,198,-18,-33,43,229,541
546,-3131,250,171,185,144,169,215,282,418
-756,-3383,81,78,89,-15,-14,240,318,226
-1187,-3249,-36,-5,23,-30,3,166,185,172
-413,-2631,-69,-68,-63,40,95,77,22,35
163,-1797,14,-20,0,215,228,22,-87,-168
101,-961,60,33,47,202,202,1,-171,-250
-106,-18,72,25,-3,74,149,5,-170,-303
-292,893,26,-7,-48,51,122,-17,-139,-244
-465,1526,-44,-61,-58,109,284,-49,-176,-259
-383,1776,-14,-30,3,171,345,-109,-196,-226
-93,1695,-80,0,28,96,191,-44,-75,-49
251,1356,-179,-44,-25,12,90,67,80,123
242,587,-148,-73,-86,-85,-3,116,200,213
35,-281,-158,-29,-17,-46,17,106,211,319
-260,-956,-178,-55,5,41,72,95,167,294
-291,-1480,-154,-63,-27,29,38,168,197,220
-62,-1790,-67,40,5,-9,-23,129,198,205
182,-1619,-8,85,10,-120,-164,55,154,184
333,-1016,65,22,-30,-219,-243,50,101,20
351,-430,70,-16,-23,-223,-225,103,104,-68
177,128,-37,8,42,-67,-65,159,114,-124
-101,799,-165,14,83,128,24,118,57,-200
-426,1572,-298,-52,24,231,105,55,-42,-158
-277,2566,-248,-62,1,339,241,15,-75,-31
-119,3415,-50,-2,25,378,174,-15,-69,49
-68,3810,123,55,35,261,108,-56,-100,87
0,3730,220,57,-13,1,-47,-132,-162,86
-98,3276,251,72,-55,-179,-230,-153,-177,-33
21,1720,160,-2,-156,-323,-435,-234,-180,-185
29,699,65,-81,-189,-235,-268,-204,-155,-42
94,-187,-41,-125,-213,-51,7,-148,-96,78
253,-958,-89,-91,-141,98,144,-93,-25,142
331,-1621,-125,5,43,166,195,105,160,221
391,-1847,-95,116,200,194,301,237,175,84
300,-1739,45,186,273,230,422,217,112,-98
-72,-1355,207,200,249,157,302,126,41,-58
-308,-744,220,136,172,87,212,60,23,-25
-130,15,38,3,0,-49,82,68,103,100
6,863,-269,-109,-90,-46,84,128,112,53
-67,1747,-355,-108,-32,76,130,98,50,-39
-220,2492,-273,-63,-9,69,26,0,-61,-99
-231,2852,-244,-19,-30,9,-83,-27,-28,-57
-66,2798,-174,-51,-50,-22,-80,5,80,154
-40,2399,-37,-57,-33,0,-28,-20,20,183
-28,1656,80,6,33,11,-28,-50,3,102
15,762,145,72,111,93,53,-31,-27,32
277,11,166,83,64,29,113,183,150,69
377,-543,139,54,18,-51,24,152,154,-61
206,-1026,139,50,13,-103,-109,-61,-48,-142
-102,-1354,63,38,-4,-144,-196,-86,-67,2
-460,-1429,-19,9,5,-63,-118,-87,-92,-66
-347,-1231,35,-5,-5,-64,-131,-70,-76,-68
64,-767,172,56,36,-71,-177,-76,-73,24
189,-123,194,93,67,-10,-83,-120,-136,41
203,689,95,32,11,9,46,-206,-220,13
149,1619,-19,-36,-37,-18,-15,-247,-187,-14
-222,2517,-61,-86,-53,33,-14,-217,-203,-90
-133,3209,-129,-141,-93,36,49,-115,-175,-12
91,3330,-201,-201,-148,-79,5,-53,-91,217
-65,2952,-178,-161,-117,-83,-81,-96,-64,496
25,2369,-110,-128,-129,-126,-178,-102,8,708
178,1575,-13,-64,-126,-158,-191,-109,-52,606
-5,600,-64,-16,-51,-68,-88,10,-53,285
-194,-292,4,24,3,16,25,238,153,-138
-216,-1071,-6,27,37,22,71,446,471,-479
48,-1643,-25,29,60,40,210,451,587,-402
-12,-1846,71,115,147,102,199,189,305,-408
-316,-1754,126,176,217,115,22,-20,23,-492
-328,-1397,146,153,184,42,-94,4,21,-271
-17,-616,140,69,69,-62,-133,73,74,-48
309,316,89,-29,-28,-95,-95,25,25,-41
484,1268,33,-75,-94,-117,-97,-75,-48,-43
479,2252,6,-36,-89,-100,-56,-134,-117,-8
352,3061,20,10,-32,-48,-11,-89,-83,-14
188,3444,38,55,29,3,8,-24,-50,-105
-313,3228,23,82,100,64,31,9,-20,-201
-380,3004,36,36,49,4,-68,0,37,-31
-180,2487,62,32,14,-27,-60,32,73,128
-131,1700,117,87,78,108,144,21,-14,99
-67,1051,138,115,96,133,141,-9,-117,89
-64,549,152,129,94,42,49,-99,-224,74
-253,80,134,114,88,23,29,-276,-397,-110
-17,-100,47,31,7,-19,17,-290,-340,-62
197,30,-20,5,-14,-42,1,-187,-137,115
320,412,29,12,9,-15,-15,-118,3,116
306,971,147,11,-46,-109,-133,10,206,66
74,1707,169,-15,-109,-217,-273,25,243,-7
-76,2543,-43,-112,-165,-238,-279,-37,112,-128
-150,3486,-213,-104,-129,-134,-156,10,81,-162
-134,4409,-227,-40,-23,0,-24,79,107,-100
-55,5097,-114,9,55,109,92,161,153,-26
-21,5310,-33,42,95,164,179,188,136,-24
130,5232,-5,13,35,66,98,175,146,97
139,4928,9,-21,-33,-22,-17,79,83,155
-69,4259,6,-46,-64,-59,-87,-35,-24,88
-248,3442,-122,-73,-35,3,-67,-157,-168,-43
-245,2762,-166,-63,-2,35,-76,-219,-220,-56
5,2272,7,-22,-35,-91,-162,-126,-92,136
242,2001,34,-45,-80,-176,-168,68,91,333
379,1935,56,-15,-47,-178,-219,249,239,460
399,2003,99,31,-28,-179,-170,316,257,512
106,2170,74,65,2,-83,1,220,138,339
-54,2622,-21,34,-15,-16,60,161,109,138
12,3227,-80,52,8,52,32,58,73,-48
-185,3690,-147,32,38,147,115,1,-20,-396
-268,4150,-133,-67,-17,87,149,-16,-99,-654
154,4514,-54,-71,-43,-58,-20,-100,-135,-481
533,4530,45,6,-43,-244,-230,-164,-121,-117
283,4319,39,13,-79,-408,-371,-205,-134,-12
-13,4037,19,3,-98,-407,-417,-225,-144,-89
-95,3651,52,24,-28,-103,-251,-171,-97,-204
-114,3112,43,16,10,193,48,-125,-85,-168
29,2607,-121,-159,-152,87,121,-186,-162,-12
219,2115,-245,-240,-246,16,82,-159,-141,106
-91,1404,-200,-84,-54,346,333,-67,-158,-131
-602,755,-28,78,136,640,630,207,55,-253
-432,715,170,187,194,570,517,404,355,28
-5,1039,219,190,148,284,226,273,305,29
-61,1284,152,101,70,125,100,158,169,-119
-302,1699,67,46,25,94,186,119,62,-147
-251,2186,51,44,27,87,232,47,2,-34
-163,2448,40,25,21,69,154,-55,-97,60
-211,2482,40,44,44,20,36,-202,-250,-73
-369,2372,65,127,163,64,-35,-385,-435,-322
-308,2230,-4,148,206,71,-6,-307,-394,-348
-65,2098,-131,12,18,-96,-12,22,-11,-92
46,1969,-189,-149,-155,-201,-126,106,141,56
266,1842,-210,-216,-230,-217,-168,22,79,126
361,1721,-124,-179,-218,-115,33,-5,91,246
351,1603,-42,-106,-163,9,141,-7,80,285
422,1467,40,-38,-105,75,170,33,85,278
167,1307,106,22,-28,67,166,99,81,132
-119,1150,146,71,46,60,124,183,91,19
-339,1069,78,47,49,63,113,268,112,-64
-296,1056,62,52,29,23,82,218,97,-152
-97,1075,78,50,13,-14,47,113,42,-128
28,1079,17,9,-6,-12,14,30,-34,-66
147,1036,0,-27,-41,-68,-93,-95,-79,70
43,977,-7,-52,-42,-91,-146,-144,-88,113
-92,914,-21,-42,-23,-67,-103,-96,-84,83
23,862,-31,-28,1,-8,-41,-36,-60,64
318,815,46,33,72,59,18,-35,-44,4
378,764,154,121,132,82,-23,-81,-98,-89
-32,709,162,162,153,112,-15,-97,-122,-239
-387,662,120,127,123,95,-8,-89,-104,-266
-267,622,16,26,29,4,-37,7,26,-97
145,552,-78,-79,-82,-118,-123,25,118,134
281,453,-56,-71,-88,-148,-138,13,109,264
124,326,-12,-28,-28,-63,-48,29,82,224
40,185,40,15,41,10,28,64,98,171
33,122,32,34,45,31,56,84,116,178
157,164,83,37,31,-14,-46,-2,-12,120
274,259,76,20,9,-54,-128,-84,-135,-91
80,324,-132,-38,-29,-89,-160,-109,-148,-280
-158,346,-185,-11,-7,-81,-155,-81,-122,-261
-150,371,-75,19,29,-67,-153,-66,-86,-73
-199,368,-63,-36,-21,-82,-157,-63,2,140
-217,352,-159,-130,-124,-88,-83,-115,-4,113
-41,314,-206,-161,-165,-74,-17,-110,-8,50
131,190,-153,-151,-128,-6,-43,-86,-18,41
253,-149,-106,-118,-108,39,-40,-62,-83,100
262,-889,-24,-48,-79,-3,-63,-39,-40,272
-150,-6103,255,134,155,-164,-52,102,95,-323
-207,-6343,230,90,105,-201,-90,147,157,-196
-76,-6166,138,33,24,-142,-48,82,70,-176
-75,-5767,100,58,14,34,-18,-60,-120,-314
-237,-5334,139,115,42,181,-63,-90,-174,-353
-272,-4756,155,165,140,307,128,-124,-272,-373
-179,-3986,105,164,171,132,153,-122,-295,-282
-18,-3253,-32,31,43,-229,-163,-8,-74,26
100,-2896,-100,-73,-33,-357,-350,-28,-27,135
152,-2972,-81,-56,-31,-282,-176,-78,-63,104
26,-3348,-152,-92,-82,-132,-7,-14,39,102
-44,-4222,-292,-121,-63,74,181,94,136,48
50,-5202,-314,-123,-49,199,303,198,227,23
195,-5924,-229,-187,-117,232,414,323,353,52
359,-6472,-121,-155,-107,229,391,395,389,185
397,-6770,-52,-112,-78,169,297,234,190,224
312,-6752,21,-60,-53,119,213,77,24,150
235,-6528,70,-5,4,90,178,83,57,148
141,-6077,84,31,57,76,169,139,71,93
87,-5304,81,57,93,77,146,157,99,-39
188,-4176,133,72,101,53,92,46,40,-60
170,-3014,143,85,89,10,37,-37,10,47
-134,-1788,70,17,7,-78,-38,-76,-12,66
-481,-553,-8,-39,-46,-83,-83,-163,-128,-106
-637,433,-24,-14,-5,-11,-85,-200,-213,-276
-262,1049,31,20,-11,-1,-135,-246,-319,-277
-32,1186,77,81,27,1,-158,-297,-386,-256
-97,1018,82,117,72,-42,-204,-224,-315,-258
3,541,83,144,124,-14,-181,-84,-202,-214
36,36,48,112,102,-68,-211,41,-53,-71
11,-274,-157,-6,2,-133,-173,217,148,86
-127,-504,-232,-86,-19,-10,55,253,189,131
-175,-646,-97,-35,42,175,236,198,211,103
-68,-454,13,-17,21,225,401,296,329,178
114,29,94,-7,-2,143,223,249,314,248
265,682,168,6,-55,-106,-42,137,241,260
295,1523,113,-55,-131,-185,-26,8,96,198
-30,2310,-83,-158,-175,-63,77,-150,-44,101
-211,3035,-155,-125,-141,-52,-19,-103,79,160
-99,3744,-80,-33,-41,-35,-84,-24,138,205
31,4384,-54,-44,-9,0,-58,-69,46,129
197,4758,38,-20,-21,7,-84,-189,-101,19
147,4695,20,-55,-71,-50,-135,-246,-161,-61
25,4304,-45,-89,-94,-61,-102,-202,-180,-179
155,3616,30,2,0,2,-1,-22,-99,-134
270,2740,137,93,105,78,69,107,-56,-6
352,1997,146,70,60,42,19,23,-141,30
138,1265,23,0,3,-17,-82,-134,-209,-51
-59,414,-9,28,54,30,-46,-213,-249,-164
29,-237,42,46,78,41,13,-122,-75,21
-66,-550,78,69,107,52,49,-24,84,77
-297,-634,47,54,78,51,34,15,105,19
-113,-527,-49,-21,-28,-18,22,171,286,295
-15,-196,-101,-66,-75,-15,48,202,296,434
3,290,6,23,12,26,9,47,87,197
6,945,93,65,54,-28,-127,-54,11,-23
-184,1574,80,30,13,-127,-228,10,73,-53
-454,1935,46,35,26,-84,-198,10,1,-178
-311,1978,-9,9,-3,-137,-267,-124,-170,-146
3,1729,-42,-7,-31,-176,-276,-200,-251,43
24,1186,-22,-2,-9,-114,-95,-157,-227,23
-118,334,-79,-11,3,-42,40,-111,-229,-139
-116,-630,-4,12,42,71,131,-48,-169,-221
-38,-1553,17,31,60,123,224,13,-71,-137
-5,-2389,-57,-8,14,33,203,41,96,-60
66,-3113,-17,-36,-30,-136,-50,-5,171,9
4,-3593,-45,-62,-18,-90,-54,12,155,-6
-71,-3717,-162,-118,0,134,180,22,75,-132
70,-3615,-105,-85,0,164,147,20,78,-103
140,-3188,-116,-154,-96,119,115,14,126,9
224,-2481,-171,-256,-231,33,119,83,192,204
502,-1742,-51,-154,-185,-76,-82,58,166,391
727,-1029,145,43,12,-36,-81,51,99,402
667,-313,156,95,72,-80,-63,103,130,399
234,124,102,99,78,-105,-89,99,147,333
-420,35,180,236,198,-40,-105,108,118,69
-777,-242,278,329,307,0,-198,145,131,-187
-699,-696,258,340,339,39,-269,128,115,-357
-456,-1347,200,289,259,-70,-254,87,54,-316
-99,-1909,115,181,96,-292,-232,87,94,-37
-24,-2392,15,14,-64,-319,-288,27,88,19
-196,-2882,-154,-179,-144,35,-67,-122,-161,-192
-32,-3210,-356,-326,-202,471,440,-91,-223,-238
335,-3109,-370,-275,-190,530,690,30,-78,-22
419,-2680,-157,-120,-105,345,531,0,-66,122
162,-2128,35,-22,-50,221,253,-93,-133,100
-255,-1509,81,0,7,200,182,-66,-138,5
-226,-896,207,112,146,339,431,61,-81,-77
90,72,257,137,133,282,373,26,-94,-11
169,1208,-20,-3,37,123,101,-42,-80,17
92,2164,-295,-145,-69,-17,-49,-70,-33,47
114,2722,-333,-196,-127,-66,-74,-72,-12,197
241,2734,-196,-139,-103,-50,-66,-100,-22,278
142,2442,-91,-82,-69,-38,-49,-111,-30,156
-105,1725,-41,-16,-14,-33,-69,-147,-108,49
-138,763,-35,-11,-5,-26,-36,-76,-43,62
-51,-72,22,3,-3,-14,-21,-43,36,-42
54,-807,86,31,31,1,-31,-47,78,-215
155,-1419,109,41,7,-53,-69,25,202,-198
52,-1882,84,51,-4,-75,-49,74,155,-125
-284,-2074,61,41,1,-48,-12,47,0,-79
-344,-2055,58,43,33,-31,-10,20,-64,-31
-87,-1805,107,97,83,3,-22,-37,-47,27
-6,-1302,109,113,96,-1,-67,-69,-23,65
-54,-763,27,65,69,-26,-108,0,49,150
105,-127,-2,20,42,-4,-99,51,98,245
210,582,28,11,17,0,-110,-14,24,233
246,1088,-34,-19,6,-21,-119,-146,-111,124
137,1010,-100,-79,-13,-48,-183,-233,-168,44
-143,530,-103,-135,-81,-139,-324,-220,-130,34
-269,-182,-109,-144,-112,-167,-309,-120,-96,-44
-249,-1230,-97,-123,-91,-79,-36,10,-127,-159
-137,-2256,15,-56,-31,-54,-34,75,-124,-154
27,-3195,53,-62,-85,-171,-176,212,39,125
52,-3989,65,-80,-136,-234,-153,268,126,267
-44,-4658,16,-73,-90,-120,120,209,72,228
-38,-5033,-9,-12,11,32,260,81,-4,99
45,-4942,4,26,72,60,138,-36,-36,-81
53,-4510,14,21,50,-2,12,-86,10,-220
7,-3859,38,16,32,-42,-77,-45,196,-148
2,-3234,-88,-6,33,10,-33,16,245,-109
96,-2509,-229,-13,29,36,39,24,101,-42
74,-1604,-162,20,55,30,35,-7,0,79
-125,-817,30,97,111,65,51,-13,-6,114
-218,-314,69,119,136,105,95,56,104,76
-113,-180,62,67,68,71,84,53,70,-33
-105,-952,-34,-95,-159,62,1,-6,-38,-283
52,-1711,-44,-110,-167,24,70,-77,-79,-246
224,-2449,-42,-89,-134,-36,71,-50,3,7
189,-3048,-12,-40,-76,-82,14,31,91,95
89,-3509,107,48,-2,-84,-16,66,112,30
69,-3737,128,81,25,-81,-104,29,70,-28
85,-3589,45,49,10,-78,-152,-69,-86,-76
123,-3167,76,26,9,-61,-49,-102,-183,-58
64,-2621,124,51,49,29,68,-10,-107,-3
34,-1807,150,79,65,96,43,-7,-70,26
274,-921,215,58,30,27,-21,-113,-136,54
530,-76,212,1,-16,-36,-8,-234,-231,47
565,817,139,-59,-90,-74,-38,-236,-249,59
516,1589,90,-57,-97,-96,-89,-157,-188,146
60,1751,-27,-59,-77,-59,-11,-22,-72,187
-673,1313,-114,-28,-9,-20,8,13,-15,40
-711,738,-169,-20,28,4,27,106,158,154
-264,-18,-258,-79,38,95,116,125,209,370
75,-833,-170,-69,52,72,65,55,199,386
33,-1652,-108,-34,15,-29,-25,126,323,282
-141,-2433,-118,-37,5,46,98,207,303,-42
-254,-3054,-127,-56,-10,106,193,265,264,-327
-244,-3433,-55,-24,-4,-1,50,305,330,-304
-128,-3470,16,39,28,-116,-80,148,186,-116
-10,-3291,60,72,41,-197,-167,-8,-10,24
96,-2859,-36,32,-5,-232,-244,-31,-39,30
138,-2292,-45,11,-19,-177,-244,-14,-19,-21
61,-1648,99,77,66,53,-92,-80,-87,-186
-91,-842,116,85,108,359,234,-132,-220,-383
-262,68,50,37,83,392,303,-113,-266,-425
-196,806,14,-3,-8,99,43,-5,-121,-213
56,899,78,45,-9,-108,-126,78,1,25
88,539,122,120,88,-51,-35,-18,-126,-11
96,8,96,112,131,73,38,-130,-245,-113
97,-818,84,97,131,95,25,-163,-257,-153
84,-1569,20,17,34,3,-11,-264,-353,-232
140,-2158,-168,-145,-145,-154,-99,-191,-233,-81
94,-3542,-10,-40,-93,-225,-283,64,211,286
165,-3826,96,66,-11,-186,-105,181,337,385
35,-3687,84,34,-4,-112,40,121,200,318
-29,-3189,35,-9,-12,-17,-34,24,38,183
-34,-2389,59,1,-23,84,-68,-2,11,38
-91,-1490,71,0,-31,179,230,3,-36,-157
-241,-668,83,33,1,131,334,32,-72,-231
-192,355,22,9,-23,19,139,-22,-134,-130
-26,1326,-23,6,-29,-77,-45,-91,-166,-64
-20,1824,62,59,34,-76,-90,-106,-202,-140
-176,1743,0,14,30,33,102,-70,-292,-196
-77,1548,-124,-91,-51,66,95,-80,-271,-65
71,1062,-145,-129,-80,78,89,-48,-46,177
115,236,-87,-80,-12,99,172,109,242,451
111,-473,-63,-22,41,142,241,217,301,425
-44,-1058,-101,-13,78,270,314,168,170,205
-116,-1405,-162,-40,29,200,188,100,134,17
225,-1435,-109,-76,-46,22,19,89,174,-46
577,-1182,-27,-56,-46,-25,5,93,181,-105
738,-675,-22,-40,-50,-30,-6,91,160,-138
591,-60,-3,13,-3,-7,-11,112,156,-133
-33,594,-12,92,83,38,-22,79,110,-219
-490,1274,59,108,91,12,-95,51,51,-196
-601,2184,33,52,35,-64,-166,35,5,-135
-518,3196,-12,63,40,-84,-201,29,-48,-76
-333,4062,31,44,4,-106,-240,43,-78,8
-158,4428,-13,-34,-69,-77,-164,11,-123,6
-142,4308,16,-17,-34,-8,-46,-10,-144,-56
-128,3868,65,24,15,72,5,-42,-119,-100
-84,2998,98,56,26,85,-35,-66,-77,-66
106,2077,109,72,31,18,-115,-109,-72,57
235,1298,122,79,48,-35,-173,-132,-98,127
60,523,78,61,56,36,-83,-140,-163,38
-180,-109,-37,-30,-3,174,338,-40,-152,-53
-124,-372,-76,-56,-22,194,447,87,-5,37
21,-303,1,30,21,59,199,71,19,99
59,-99,81,76,38,-32,47,-8,-63,75
96,348,79,27,-3,-65,-5,-14,0,91
79,965,58,3,-23,-79,4,23,131,108
36,1727,190,58,-25,-111,-54,-38,73,53
-11,2627,241,56,-28,-125,-91,-82,-12,27
22,3417,95,12,-10,-86,-37,-39,-27,78
75,3919,-135,-36,26,-36,34,-4,-70,56
209,4060,-234,-60,17,-70,-15,63,-35,65
196,3777,-235,-98,-19,-58,-20,179,125,114
-50,3088,-211,-159,-84,-45,-50,201,234,217
-200,2006,-138,-127,-70,-18,-15,136,169,191
-179,974,-109,-64,0,100,103,-12,-68,-66
-48,218,-127,-81,-18,98,126,-60,-147,-192
137,-414,-104,-89,-81,-42,-5,8,-30,-57
78,-990,-71,-61,-59,-88,-57,31,0,40
51,-1188,28,30,34,-18,0,12,-25,42
88,-1015,90,72,49,1,6,53,40,99
103,-677,30,33,9,-43,-36,117,112,92
116,-91,-32,-27,-27,-70,-71,65,119,53
71,600,-47,-57,-59,-99,-117,-3,124,114
144,1378,-21,-36,-63,-124,-154,-42,66,130
324,2216,36,7,-31,-110,-153,-62,9,147
187,2825,46,22,-6,-83,-155,-58,-9,181
-172,3003,83,71,36,-54,-168,-71,15,154
-328,2687,124,99,49,-56,-177,-122,-38,108
-400,2022,13,34,0,-78,-197,-163,-108,-68
-122,1238,-33,-44,-82,-135,-195,-153,-121,-218
213,398,46,-12,-81,-165,-203,-178,-249,-272
279,-440,93,27,-51,-118,-35,-156,-272,-199
98,-1387,100,47,-17,-61,83,-150,-218,-54
-261,-2359,65,54,11,-51,29,-165,-164,55
-280,-2824,49,22,-20,-49,-3,-195,-182,116
-193,-2896,-7,19,47,140,111,-224,-334,18
-121,-2749,-36,70,165,334,246,-106,-256,-25
24,-2319,-144,-5,61,185,246,301,337,224
185,-1714,-178,-73,-11,52,232,341,492,258
366,-1164,-128,-17,64,113,247,150,295,126
306,-409,-211,-7,68,138,219,223,271,-158
14,443,-180,-58,-2,145,240,411,371,-307
-201,1027,56,67,46,57,49,345,309,-240
-390,1095,101,107,87,78,92,219,156,-227
-195,973,42,31,28,34,70,169,116,-155
14,686,61,10,-5,-163,-194,85,105,0
50,-51,72,15,-25,-315,-286,20,72,141
69,-833,73,10,-22,-336,-265,-21,-2,135
26,-1388,63,-25,-55,-335,-320,-45,-5,40
-26,-1716,17,-36,-80,-322,-381,-94,-37,-116
-31,-1834,-20,6,-28,-153,-303,-120,-48,-151
122,-1778,46,72,42,154,-30,-89,-55,-94
344,-1636,121,130,109,398,265,-19,-32,-10
200,-1412,94,110,120,347,198,-98,-119,-61
-101,-751,0,40,77,188,61,-150,-178,-107
-205,89,-120,-50,-1,188,132,-112,-161,-115
-97,881,-134,-87,-37,270,276,-123,-223,-151
32,1858,-63,-71,-58,167,224,-96,-170,-29
99,2883,-6,-58,-84,6,0,-74,-37,178
119,3540,-60,-101,-133,-84,-95,3,123,376
73,3547,-49,-63,-102,-77,51,111,176,367
-135,3172,99,83,40,-15,132,124,100,92
-23,2619,73,98,64,-54,42,42,-13,-87
158,1764,86,104,40,-167,-99,-40,-73,-143
-17,765,124,86,9,-241,-235,-67,-81,-161
-136,-135,72,39,-3,-182,-209,-81,-92,-126
-35,-813,64,21,10,-11,-74,-64,-53,-20
60,-1291,-19,-39,4,225,178,-65,-59,-9
91,-1457,-47,-66,-19,299,263,-63,-40,-34
73,-1354,-9,-35,-34,88,144,57,133,119
26,-1040,-21,-11,-19,0,66,140,155,161
3,-467,-13,13,11,28,22,113,53,93
115,141,68,40,9,79,182,133,50,101
12,822,79,9,-7,112,268,71,15,-2
-157,1732,-51,-110,-125,22,127,-50,-67,-96
-244,2506,-261,-159,-152,-4,0,-134,-133,-51
-277,2829,-372,-133,-103,1,-71,-166,-123,-75
130,2774,-224,-128,-117,-54,-100,-13,50,28
477,2334,113,21,-3,6,-10,148,195,132
461,1514,260,160,120,98,103,208,227,49
255,627,171,125,98,104,139,163,133,-122
-11,-70,64,70,50,43,61,53,-8,-191
-103,-569,124,77,28,-19,-30,-45,-73,-75
-60,-1044,152,53,19,-37,-73,-50,-45,50
61,-1364,171,87,51,-33,-96,-38,-19,48
29,-1295,228,99,55,-55,-132,-63,-45,13
-165,-1043,191,73,17,-100,-165,-127,-107,-25
-265,-62,100,7,-58,-199,-279,-167,-146,-90
-267,475,-12,-61,-107,-168,-190,-163,-227,-121
-288,1141,-108,-89,-126,-122,-84,-111,-213,-119
-249,1909,-205,-92,-119,-85,-76,-28,-108,-48
-208,2363,-263,-108,-102,14,8,54,-16,-1
-239,2205,-205,-102,-56,105,103,131,71,12
-210,1848,-57,-18,-4,135,189,139,133,8
-42,1296,83,44,-6,22,80,111,193,80
26,183,52,37,-2,5,64,49,137,119
41,-972,-1,19,19,30,106,-30,2,87
53,-1876,-67,-29,30,57,136,-45,-65,47
185,-2583,-92,-64,18,43,96,-35,-11,131
195,-3148,-94,-106,-41,-40,11,47,89,203
91,-3404,-56,-86,-52,-49,-28,127,142,184
34,-3355,10,-15,3,-19,-5,157,221,95
6,-3143,69,54,91,57,73,177,249,-129
-27,-2640,105,90,136,126,133,182,144,-286
-15,-1898,106,102,129,89,35,76,-27,-280
80,-1025,71,86,97,-19,-117,-25,-116,-157
133,-16,124,62,61,-107,-202,-70,-83,-117
178,889,138,46,12,-204,-272,-59,-14,-67
35,1413,75,18,-26,-212,-266,-94,-7,-95
-201,1390,5,1,8,-57,-103,-110,-43,-139
-184,1160,40,40,36,85,-21,-86,-49,-123
18,672,51,-8,4,154,3,-87,-49,-51
58,-185,-28,-79,-17,213,86,-100,-104,-48
136,-914,-104,-112,-66,78,100,-64,-51,45
235,-1459,-129,-106,-31,9,117,-55,-10,193
69,-1947,-94,-102,-31,28,111,-63,-19,289
-190,-2300,-74,-88,-92,-94,16,-20,17,201
-244,-2317,8,30,-23,-91,14,-40,-23,-61
-193,-2086,18,54,36,-2,13,-25,-20,-248
-89,-1692,69,31,37,-12,-46,3,44,-205
19,-1064,43,34,66,-32,-64,15,62,-56
86,-275,23,29,52,-55,-86,16,50,124
197,694,-5,-24,-30,-128,-149,46,54,228
198,1736,-65,-96,-115,-196,-178,31,20,141
14,2585,-85,-135,-145,-193,-228,-109,-134,-106
9,2957,-44,-96,-108,-181,-291,-154,-217,-352
67,2704,-27,-38,-31,-107,-208,-81,-176,-337
105,2055,10,23,71,-7,-24,59,-8,-34
118,1153,91,101,125,-61,-25,74,87,154
287,338,111,95,87,-150,-174,19,96,200
519,-269,79,58,42,-86,-124,45,135,252
194,-941,4,-2,14,104,227,-1,-16,-24
-272,-1527,-139,-62,-1,220,387,-80,-205,-452
-450,-1834,-117,-46,10,216,253,-65,-210,-439
-300,-1720,15,-3,-11,0,28,32,9,-61
-217,-1416,2,16,-17,-212,-182,43,83,160
-212,-881,-64,32,9,-196,-155,-24,-21,118
-249,-132,20,34,6,-117,-22,-71,-94,91
-362,634,-21,-33,-34,35,45,-139,-122,14
-277,1557,-116,-66,-21,184,63,-199,-181,-89
-63,2409,-155,2,41,212,121,-117,-62,-90
-1,2886,-25,104,125,262,347,104,167,-135
-34,2906,122,150,175,309,342,176,170,-80
36,2754,115,116,134,246,181,93,79,61
191,2266,64,65,62,78,87,135,72,122
187,1326,42,43,43,12,50,136,34,75
87,346,-37,-19,12,35,31,55,10,9
69,-513,-95,-91,-55,68,53,-15,6,-25
138,-1275,-41,-85,-90,1,-7,-51,121,67
128,-1921,-73,-88,-48,-6,-24,-71,94,71
139,-2220,-99,-98,-31,9,45,29,132,103
226,-2180,-102,-55,-45,-27,117,186,313,255
172,-1956,-31,-37,-72,-84,36,279,471,250
25,-1467,98,13,-14,-60,-51,132,283,6
-37,-878,141,46,18,-37,-65,14,62,-169
-154,-250,138,48,25,-14,-49,0,-25,-210
-278,440,74,13,37,52,2,28,-27,-174
-16,1263,65,11,22,44,24,55,17,-48
218,1745,27,28,21,13,-34,24,-10,46
65,1593,-5,70,45,9,-138,-41,-74,38
15,1184,-21,90,37,-56,-222,-46,-58,107
17,339,-21,81,30,-81,-224,-42,-45,146
-60,-754,-28,0,24,-39,-137,-26,-62,80
-57,-1574,-18,-35,-2,-44,-74,7,-61,71
81,-2128,72,-1,-22,-61,-15,-24,-109,64
183,-2767,58,-27,-32,-28,61,-28,-106,54
338,-3196,48,-42,-41,-41,37,-39,-92,67
408,-3188,23,-69,-79,-129,-106,-94,-87,127
152,-2960,-9,-92,-101,-151,-140,-129,-70,163
-353,-2494,-57,-122,-151,-130,-118,-169,-101,77
-440,-1730,-46,-125,-169,-84,-102,-168,-100,22
-111,-921,-51,-112,-160,-75,-77,-159,-88,18
-27,-127,-90,-106,-121,-51,14,-128,-90,-45
-241,665,-99,-60,-38,86,198,-84,-116,-197
-245,1319,-72,40,87,236,305,68,-30,-124
-53,1657,-8,105,156,274,267,116,-24,19
166,1688,52,93,101,165,148,131,-15,119
105,1281,72,105,105,142,140,179,56,61
-153,509,-19,98,122,148,136,124,16,-129
-58,-104,-3,70,69,45,12,46,28,-152
252,-1180,155,107,65,-60,-65,13,117,-125
301,-1570,115,87,37,-135,-127,-10,90,-101
105,-1702,56,20,-10,-165,-152,-26,48,-77
-69,-1624,81,42,35,-120,-86,19,2,-65
-96,-1319,167,120,112,-43,-68,77,-20,-59
-86,-705,104,95,104,28,-82,141,17,-27
-80,126,107,65,28,-8,-113,133,-6,-30
-86,946,103,58,-27,-88,-103,109,5,-24
-254,1849,31,43,-10,-32,-116,41,-18,-55
-251,2756,-62,28,38,77,-132,-36,-51,-65
-188,3347,-187,-6,0,-7,-230,-136,-70,-38
-225,3361,-288,-38,-47,-178,-215,-171,-106,-49
-189,3085,-277,-152,-145,-269,-186,-212,-178,-97
1,2486,-162,-223,-230,-235,-314,-260,-192,-65
135,1421,-104,-174,-196,-83,-245,-199,-109,-16
106,233,-94,-115,-92,219,75,-27,25,74
40,-752,-26,-34,0,482,443,120,124,152
-107,-1484,29,22,50,505,762,274,204,105
-27,-1941,38,61,84,359,704,297,164,40
44,-2080,53,86,110,225,421,227,90,28
55,-1873,-27,50,71,116,170,122,39,-35
177,-1402,-49,-15,8,63,93,32,0,-19
143,-769,-13,16,39,75,87,-59,-73,19
-6,-64,-24,29,88,112,87,-126,-134,-26
-33,832,-8,-21,30,61,56,-64,-36,33
-16,1873,61,-15,-34,-61,-21,27,113,91
-88,2665,-8,-36,-43,-68,-28,23,61,-46
-71,3069,-27,-45,-44,-61,-56,-9,20,-202
135,3163,6,-14,-57,-95,-110,42,126,-49
124,2890,63,48,-15,-61,-106,38,117,24
24,2125,87,56,28,-16,-58,12,-11,-68
100,1341,23,1,16,-37,-79,-32,-108,-80
100,668,9,0,18,-57,-104,-43,-85,-7
65,118,86,22,-15,-137,-151,-3,-11,56
17,-275,110,13,-52,-185,-170,1,8,10
27,-483,91,5,-41,-165,-169,-72,-63,-64
-25,-501,-42,15,9,-2,45,-109,-146,-129
-42,-339,-128,-12,49,201,315,-41,-97,-106
62,167,-155,-62,-1,132,184,25,58,45
-1,1564,21,13,12,-86,-103,-76,-21,29
-10,2270,45,35,39,-122,-144,-105,-6,3
69,2999,42,33,29,-175,-239,-85,10,30
215,3488,19,-11,-33,-266,-298,-15,45,92
419,3468,58,-5,-73,-299,-298,-31,-1,99
176,2950,52,-31,-90,-200,-340,-96,-110,-9
-302,2190,-27,-74,-134,-74,-281,-71,-128,-107
-283,1135,-10,-68,-80,127,66,-11,-157,-135
-104,17,80,1,-29,192,205,3,-92,-64
-27,-989,135,58,-3,160,283,70,160,27
-15,-1887,75,22,-2,135,329,181,379,83
41,-2566,-12,-25,-19,47,164,154,292,68
133,-2933,-46,-23,-17,-8,81,70,117,35
35,-3044,-89,-30,12,-8,85,28,-11,-14
-114,-2911,-164,-78,11,12,74,34,-35,-17
-57,-2341,-107,-67,1,-40,-11,2,-16,73
-6,-1655,-64,-45,-10,-94,-93,-11,37,122
-60,-951,-38,-34,-19,-125,-140,-4,51,49
-56,-13,62,24,12,-131,-196,-52,7,-18
26,811,103,67,51,-110,-207,-113,13,0
67,1222,104,96,95,-10,-80,-112,37,-31
64,1217,141,130,156,113,79,-44,58,-70
-73,1070,147,127,142,116,79,-17,-16,-60
-143,610,77,63,59,82,90,-96,-184,-84
-39,-193,-6,6,-3,24,74,-146,-217,-100
-12,-993,-101,-59,-56,1,64,-45,-36,-10
-45,-1671,-117,-104,-96,-41,24,79,110,32
-28,-2212,-29,-78,-94,-95,-39,58,88,-27
50,-2541,32,-31,-53,-88,-56,49,79,50
228,-2529,11,-19,-17,-30,2,102,89,47
237,-2311,9,-10,6,6,54,148,117,-64
126,-1819,9,1,1,-5,28,89,24,-145
-189,-1105,-82,-43,-54,-39,-24,-6,-78,-177
-228,-359,-110,-89,-88,-78,-70,12,-17,37
-14,436,-109,-82,-46,-33,-29,89,86,287
109,1226,-93,-46,12,42,38,120,114,402
56,1897,9,17,71,63,52,162,152,379
-86,2174,148,132,172,77,67,212,154,120
-79,2060,221,211,217,14,-7,130,75,-191
-179,1647,165,164,159,-110,-140,58,29,-329
-108,830,112,105,98,-162,-220,29,-5,-196
176,-64,107,86,58,-194,-295,-35,-72,10
156,-913,67,46,41,-108,-291,-96,-166,-14
146,-1647,40,2,0,12,-190,-116,-176,-46
112,-2267,11,-28,-48,39,-88,-118,-160,-20
-35,-2670,-45,-77,-79,27,6,-139,-167,-41
-203,-2710,-81,-93,-57,180,161,-102,-143,-67
-214,-2539,-61,-66,-14,327,286,-49,-108,-49
-131,-2114,-40,-35,1,233,270,15,-68,18
39,-1519,-15,23,30,77,167,31,-79,59
92,-922,-25,37,55,55,121,-16,-127,69
55,-94,-29,2,33,34,42,-45,-129,90
2,892,-30,-9,-6,-54,-126,-88,-134,63
-79,1590,-78,-45,-37,-70,-109,-136,-183,22
-112,1731,-145,-109,-71,9,33,-117,-156,18
-48,1565,-143,-123,-92,11,2,18,45,88
44,1145,-22,-63,-86,-69,-123,90,166,155
-8,343,49,-21,-64,-17,58,123,141,87
-142,-477,94,46,31,134,337,107,4,-86
-301,-1149,66,69,106,203,314,69,-88,-252
-226,-1622,-5,39,72,118,205,49,-3,-215
-3,-1855,57,65,43,-14,80,2,91,-38
87,-1797,75,76,62,-55,23,-55,72,-34
18,-1530,-6,39,48,-15,28,-43,34,-69
182,-917,-57,-41,-49,-130,-91,50,154,57
357,15,-63,-70,-104,-203,-194,72,160,143
266,893,-78,-77,-83,-121,-127,51,52,102
187,1708,-109,-78,-62,-49,-82,71,39,52
53,2571,-60,-30,-34,-1,-37,33,18,39
-6,3296,37,25,10,32,76,-37,-36,22
86,3713,35,23,-24,-71,-86,-78,-17,66
136,3634,14,-39,-105,-216,-280,-168,-63,38
92,3208,-17,-58,-128,-270,-340,-249,-179,-14
51,2382,-75,-50,-116,-249,-281,-206,-162,48
85,1301,-58,-33,-75,-125,-59,-52,-27,146
-21,265,37,63,44,82,148,84,39,140
-156,-573,62,100,102,169,173,134,60,88
-72,-1225,-28,22,64,117,137,127,80,23
48,-1702,-146,-41,11,91,131,38,33,0
111,-1804,-166,-44,-22,46,36,-34,63,-2
65,-1687,-92,-28,-41,6,-49,4,153,33
134,-1339,-11,-1,-2,6,-62,16,108,114
118,-636,-43,14,16,-6,-46,10,63,174
-129,68,-21,29,22,-34,-111,-48,27,171
-208,795,80,64,51,-9,-130,-34,46,93
-288,1570,85,80,79,90,22,-8,-37,-76
-169,2278,-52,-11,10,135,267,17,-84,-143
-89,2439,-96,-45,-26,118,205,-9,-63,-107
-174,2097,-41,-14,-12,44,37,-49,-36,-95
-243,1508,-5,-13,-33,-27,27,-67,-83,-75
-221,555,-33,-37,-53,-31,47,-96,-146,14
81,-263,-102,-77,-58,6,60,-124,-138,140
266,-897,-91,-80,-41,81,89,-29,45,207
176,-1383,34,-11,0,98,51,-51,44,74
0,-1676,87,23,9,37,14,-154,-124,-169
-98,-1831,68,31,55,48,71,-70,-53,-236
-70,-1673,110,80,102,72,65,30,108,-140
120,-1234,186,128,115,3,-66,120,235,38
146,-592,163,102,69,-19,-77,195,201,81
41,122,114,51,33,-3,-60,150,66,47
114,894,138,72,28,-21,-108,-6,-56,7
97,1725,71,51,38,64,-3,-57,-124,-51
-9,2501,-76,-18,13,99,30,-24,-97,-109
-53,2991,-79,-14,-3,-16,-75,-70,-107,-105
-54,2932,24,23,9,-68,-68,-68,-118,-81
-31,2531,54,81,84,-2,-67,-119,-198,-127
5,1862,36,39,75,50,-127,-135,-150,-80
124,893,-38,-36,-1,42,-132,-40,-9,76
102,-134,-38,-80,-44,18,-55,6,-2,88
-107,-1120,-43,-99,-40,27,-9,-7,-70,30
-256,-2005,-42,-104,-51,53,21,-7,-65,51
-182,-2672,32,-19,-50,20,56,8,-6,136
-136,-3043,30,37,18,-10,55,33,96,130
-59,-3145,8,33,49,-58,0,88,187,123
185,-2939,13,-3,5,-122,-39,75,163,163
175,-2490,36,-12,-31,-72,-12,-7,40,73
-23,-1940,28,-25,-60,-65,-92,-115,-90,-126
-25,-1236,-6,-61,-77,-40,-107,-200,-174,-223
46,-402,19,-5,-13,125,22,-166,-153,-149
-21,194,62,67,74,235,132,-28,-11,-127
-69,476,83,87,85,95,65,106,174,-93
4,516,68,54,45,-26,-32,66,113,-26
0,247,15,17,24,10,-34,-31,-69,-45
27,-378,15,20,28,20,-18,3,-59,-63
107,-1137,12,26,46,26,3,36,-72,-28
158,-1815,-2,13,41,52,86,19,-155,14
95,-2384,-31,-21,13,98,137,-13,-164,0
68,-2807,-22,-20,1,68,72,-56,-110,-26
111,-3009,3,23,10,-1,61,-67,-62,-34
61,-2923,-90,37,36,-28,64,13,-4,-34
-40,-2551,-155,8,40,-21,35,55,-11,-46
-79,-1937,-101,-53,-13,-62,-36,39,20,-43
-17,-1090,-85,-104,-92,-145,-93,6,125,-33
-16,-291,-111,-153,-139,-157,-9,76,277,23
41,668,-75,-118,-109,-145,-39,122,358,216
174,1705,0,-47,-82,-138,-106,141,341,391
91,2378,53,43,-22,-88,-84,179,225,344
-189,2393,107,136,79,29,-14,206,117,-20
-209,2136,51,83,74,135,48,191,14,-415
-55,1727,-28,-14,17,126,0,58,-46,-336
144,962,-46,-36,-29,23,-124,-35,-34,-51
292,88,7,26,3,41,-53,-10,37,72
195,-741,85,77,59,74,57,35,101,81
-60,-1389,9,-6,-13,-48,44,21,61,59
-190,-1789,-125,-86,-97,-92,175,22,-5,34
-78,-1855,-47,-56,-55,-70,130,23,-10,73
-200,-1663,-30,-19,1,-57,-87,-111,-104,-36
-203,-1162,9,0,8,-77,-296,-155,-21,-46
-93,-328,40,-7,-32,-122,-307,-15,183,19
104,537,-6,-20,-27,-30,-153,68,180,-40
205,1364,60,59,60,85,-135,86,149,-68
68,2323,99,76,104,195,-42,101,44,-99
-79,3321,117,72,100,262,169,68,-58,-75
-63,4045,141,84,100,256,411,55,-101,12
-9,4353,84,61,66,118,382,-40,-227,-24
-134,4304,45,62,44,-60,114,-165,-320,-90
-190,3888,43,37,-10,-207,-83,-194,-316,-53
-95,3204,39,-29,-99,-269,-145,-166,-209,31
-70,2544,31,-65,-128,-172,-77,-110,-25,90
-103,1930,80,-30,-67,75,121,-107,-41,2
-16,1307,11,-41,-24,287,283,-61,-43,-10
122,764,-161,-108,-41,336,374,64,86,76
284,717,-203,-145,-94,172,262,46,138,149
307,972,-133,-112,-104,10,92,22,113,207
24,1267,-35,-46,-22,32,116,78,133,172
-331,1650,2,16,65,131,163,122,176,-49
-323,2199,35,54,81,104,81,105,174,-255
-46,2973,57,43,23,15,-54,4,83,-250
41,3731,75,48,39,-23,-126,-111,-29,-206
-47,4230,47,32,35,-40,-111,-65,18,-118
-41,4309,23,12,22,-50,-89,28,20,-18
-1,4002,-13,-28,-7,-65,-105,-47,-170,62
18,3418,-56,-58,-34,-114,-164,-170,-308,174
-24,2433,-65,-54,-30,-100,-116,-192,-352,154
-75,1351,-79,-61,-32,-52,-51,-148,-318,42
-31,417,-93,-59,-39,-112,-105,-127,-240,-12
88,-453,-140,-71,-60,-241,-176,-19,7,-36
303,-1074,-15,-77,-82,-283,-287,-24,103,-84
320,-1495,61,-27,-46,-176,-300,-19,195,-101
35,-1879,40,43,44,-27,-149,178,434,-123
-100,-1923,85,98,109,62,22,348,556,-147
24,-1437,153,112,122,170,84,335,321,-135
98,-750,191,130,126,286,138,166,6,-122
-24,-185,108,91,89,323,233,88,-75,-53
-70,538,23,22,25,218,259,104,4,56
-135,1329,-36,21,26,145,197,96,42,69
-165,1907,4,38,28,74,48,83,80,29
-99,2011,57,48,16,-4,-29,51,43,62
-73,1786,5,7,-13,-6,93,55,17,125
-60,1316,-44,-20,-25,10,130,42,2,147
34,586,43,30,-9,-13,22,-65,-61,100
69,-301,52,55,31,-11,-32,-108,-85,-35
105,-1087,-64,6,-10,-71,-75,-42,29,-136
168,-1668,-122,-43,-75,-131,-112,-16,39,-97
161,-2117,-34,-72,-99,-155,-157,-24,34,31
30,-2229,-13,-41,-68,-129,-169,-53,-13,157
-16,-1999,15,-2,-22,-87,-114,-76,-56,207
119,-1544,85,12,-16,-105,-97,-17,4,178
58,-876,121,73,35,-79,-104,66,19,10
-244,-101,84,103,84,7,28,117,-64,-262
-333,839,-19,48,86,94,245,142,-128,-329
-79,2049,-91,22,64,10,135,133,-91,-121
80,3109,-76,37,43,-81,-75,37,-56,34
115,3731,4,54,24,-103,-177,-103,-85,77
42,3950,-44,22,-20,-102,-204,-147,-119,69
29,3987,-81,-15,-39,-67,-163,-198,-230,4
46,3742,-43,-86,-78,5,-49,-282,-343,-62
-48,3203,-65,-135,-124,10,62,-197,-282,-45
-123,2682,-8,-50,-54,5,167,-68,-220,-16
-49,2247,40,37,59,45,167,-51,-193,-18
-36,2003,20,43,70,2,25,-59,-104,23
-97,1946,47,32,8,-63,-98,-78,-20,0
33,2151,69,-8,-61,-117,-126,62,184,79
381,2469,57,13,-30,-105,-145,162,355,195
405,2822,-36,28,5,-36,-110,275,464,191
76,3315,-22,0,0,17,-21,288,385,133
-102,3760,20,5,5,48,43,198,225,132
-103,4101,108,66,49,77,-30,30,68,97
-37,4242,98,44,23,122,29,-110,-84,-7
-47,4127,-2,-29,-9,176,325,-17,-75,-50
-104,3902,2,-20,-1,108,283,0,-27,-52
30,3658,-35,-17,-14,-41,58,-5,-11,-49
58,3376,-150,-14,-13,-147,-17,32,3,-21
70,2938,-168,-11,-11,-198,-96,-23,-24,-15
-26,2257,-166,-45,-58,-217,-171,-26,5,-36
-129,1511,-72,-71,-92,-155,-193,-6,45,32
-193,791,-44,-52,-53,84,20,34,38,63
-110,150,13,5,11,257,213,77,29,74
76,-229,79,68,62,205,189,120,71,61
197,-354,135,112,102,84,37,88,64,43
93,-412,98,76,60,-77,-16,39,13,7
35,-217,41,12,-33,-272,-178,-48,-46,52
5,148,48,10,-50,-249,-285,-100,-92,112
-118,624,13,-1,-25,-25,-128,-129,-206,23
-152,1235,-16,-14,20,182,63,-160,-268,-84
-167,1668,-80,-28,33,328,282,-175,-273,-129
-149,1885,-118,-67,1,182,156,-185,-195,-74
77,1884,-65,-60,-65,-189,-153,-98,-26,117
236,1686,-126,-62,-111,-346,-265,-28,104,260
147,1224,-82,-87,-85,-206,-196,-22,91,170
-65,516,20,-67,-48,26,-69,-60,-27,-18
-131,-120,162,18,1,294,110,-59,-43,-166
-300,-729,236,109,97,444,329,19,35,-327
-213,-1092,146,83,61,253,368,161,145,-244
374,-445,30,17,-32,-10,191,224,188,57
446,148,-72,-25,-25,-2,142,193,163,121
89,33,-133,-59,-15,32,140,146,106,82
-182,72,-49,1,-15,5,76,16,-56,29
-209,407,-28,51,12,-36,-6,-123,-209,-10
-95,727,-54,-2,0,-83,-74,-192,-257,-10
123,1137,-105,-108,-88,-153,-168,-181,-178,128
132,1523,-78,-114,-129,-205,-236,-62,41,359
-41,1677,20,-31,-41,-111,-150,-22,53,355
-199,1661,67,23,40,21,-92,-112,-102,280
-211,1520,58,4,26,112,-19,-181,-195,119
-115,1224,114,34,32,104,-21,-114,-111,-55
-166,710,106,96,83,87,98,-46,-106,-244
28,582,44,96,93,38,124,-70,-186,-270
259,552,-118,-12,14,-15,85,-57,-97,-165
119,-368,-106,-61,-31,-50,109,-12,71,-98
37,-1621,-35,-44,-31,-88,39,-1,146,-72
53,-1985,-3,-41,-39,-89,26,124,234,-63
-64,-1598,25,-13,-6,-30,72,223,287,-82
-170,-1436,8,-13,22,19,89,162,157,-146
-122,-1432,19,3,68,13,20,24,-38,-174
55,-979,34,16,42,-65,-7,-4,-58,-64
150,-209,24,-6,-13,-136,-21,125,102,51
239,495,11,-22,-39,-150,-79,198,207,62
374,944,20,-26,-27,-55,-24,188,187,37
255,1156,-37,-35,0,111,110,113,118,16
-95,1142,-50,1,31,165,140,23,12,39
-223,928,-45,32,25,65,30,-13,-25,142
-109,492,-60,21,-14,-35,-41,-28,0,227
-82,-278,3,-24,-66,-93,-113,-67,12,137
-114,-1114,-10,-75,-104,-131,-140,-9,106,46
-174,-1893,-39,-62,-74,-76,-56,105,223,8
18,-2539,27,-11,-17,-23,0,104,154,-54
181,-3097,99,51,46,7,56,44,51,-103
92,-3433,70,104,137,118,185,54,-27,-93
83,-3327,34,93,129,133,173,58,-62,0
101,-2970,23,56,42,9,29,15,-61,88
5,-2413,-48,19,-12,-72,-60,-68,-139,43
-154,-1752,-110,-17,-46,-109,-116,-158,-179,-84
12,-985,-104,-51,-77,-139,-172,-138,-113,-55
165,-137,-18,-38,-49,-98,-147,-85,-27,29
41,594,-12,6,23,-13,-75,-39,54,8
-137,1043,6,62,79,54,-17,-8,68,-63
-35,1154,97,71,67,51,-8,27,38,-33
86,1007,120,76,68,48,-16,-26,-59,-29
36,534,-16,28,36,37,-8,-86,-110,-3
-28,-231,-110,-17,1,21,0,-82,-77,73
46,-944,-55,-17,13,21,26,-79,-76,111
-32,-1625,-57,-11,16,11,17,-107,-86,84
-125,-2209,-54,-20,5,-28,-27,-125,-85,53
44,-2843,-87,13,7,-82,-122,-151,-18,3
245,-2478,44,-7,-29,-175,-190,24,211,34
275,-2050,28,-15,-42,-179,-209,140,344,49
53,-1571,-54,-7,-32,-117,-218,165,230,48
-92,-1045,11,-9,-6,-69,-190,184,108,22
21,-354,47,-7,15,-51,-95,160,-7,-7
-23,378,27,-17,0,-65,-50,38,-150,-83
-120,929,-10,-45,-41,-66,-50,-69,-222,-158
-58,1112,-1,-56,-63,-27,57,-96,-205,-123
-169,871,-100,-57,-44,33,263,-43,-156,-106
-403,324,-290,-95,-49,89,300,-21,-166,-156
-157,-407,-156,-69,-40,66,107,-113,-202,-168
190,-1144,82,16,-46,-34,-76,-128,-86,-84
204,-2011,90,23,-35,-20,-21,16,124,0
-145,-3001,57,29,29,106,89,49,150,-87
-336,-3731,39,22,28,186,186,4,84,-154
-247,-3892,60,-4,-36,226,408,97,145,-46
-4,-3242,43,-57,-96,165,383,168,171,121
157,-2626,28,-52,-96,49,164,104,148,318
261,-2174,51,5,-41,-17,15,59,149,478
207,-1515,38,12,-36,-71,-71,45,116,465
55,-837,29,33,5,-71,-71,38,40,284
0,41,106,101,74,-55,-73,42,30,33
-25,958,170,141,86,-88,-175,25,13,-288
-2,1545,127,105,53,-156,-263,-6,21,-463
104,1614,27,67,59,-134,-286,-43,18,-309
-117,1098,14,70,106,50,-207,-48,4,-213
-261,276,41,71,123,224,-53,-27,7,-222
-55,-31,63,70,114,193,-11,-52,-60,-158
38,-417,62,65,84,87,5,-74,-83,-94
18,-1261,62,30,18,50,-46,-20,17,-30
48,-1642,-37,-17,-55,96,-13,55,88,27
29,-2000,-100,-52,-80,79,122,90,110,75
-2,-2270,-41,-66,-75,52,156,62,57,87
-66,-1902,-38,-57,-58,73,288,11,-30,37
-83,-1475,-22,-28,-23,86,255,-28,-72,30
-34,-949,-64,-69,-74,9,81,-30,-72,96
78,-107,-122,-84,-79,-36,2,-53,-119,141
130,810,-146,-59,-53,-58,-68,-74,-135,119
106,1813,-15,-27,-39,-32,-38,-39,-87,92
62,2523,44,-2,1,9,-55,-62,-115,12
81,2823,16,-3,12,-11,-122,-48,-108,-10
114,2716,9,-4,21,-75,-150,-47,-70,-25
86,2516,25,-13,-3,-126,-171,-23,63,-40
-11,1848,-54,-32,-30,-78,-145,45,178,-85
-250,840,-61,-9,-3,51,-15,64,71,-147
-257,-34,-105,-28,-7,177,174,53,-28,-101
-118,-874,-98,-64,-18,193,242,36,-29,34
-55,-1539,11,-35,-2,91,199,28,-1,134
112,-1913,132,32,21,-12,80,-62,-57,114
282,-2035,185,44,9,-50,-26,-137,-149,47
285,-2015,85,6,-25,-84,-106,-172,-210,-33
51,-1804,28,-2,-22,-98,-137,-191,-132,-54
-14,-1313,-1,43,22,-47,-93,-123,-9,-40
-14,-696,-74,19,0,-16,-34,35,136,3
-68,17,-100,-33,-37,15,22,121,163,-50
-109,736,-82,-44,-22,100,78,149,72,-149
-81,1252,-84,-18,-1,96,84,180,-19,-145
44,1338,-17,38,44,69,106,129,-102,-108
-38,942,73,118,144,96,167,6,-202,-211
-322,252,42,93,143,67,147,-72,-196,-258
-264,-656,-20,-12,4,-87,-13,79,71,-71
32,-1609,60,-19,-74,-153,-130,156,204,55
281,-2556,131,-6,-57,-38,-51,68,113,45
304,-3556,101,-4,7,151,93,-6,0,-19
267,-4410,68,4,28,154,45,-16,-14,13
211,-5007,45,18,26,62,24,96,117,166
-49,-5208,37,13,24,-32,23,102,140,172
-236,-5054,39,-32,-22,-122,-53,25,68,123
-101,-4501,80,-27,-31,-146,-102,-32,-9,117
-128,-3844,-13,-33,-5,-89,-35,17,20,70
-101,-3146,-101,-36,-4,-31,21,63,78,12
-113,-2243,-57,-16,5,15,12,23,39,-96
-146,-1333,24,22,44,17,-50,-145,-168,-146
-238,-791,-2,35,69,2,-72,-234,-312,-162
-146,-641,-51,-1,15,-62,-101,-171,-257,-75
72,-644,-4,-25,-41,-151,-218,-180,-220,-16
119,-1143,-66,-71,-52,-131,-243,-182,-147,46
132,-2044,-34,-83,-45,-78,-275,-186,-119,119
144,-2854,-19,-52,-27,-65,-289,-168,-106,130
162,-3487,5,-15,-20,-128,-271,-49,106,162
77,-4049,11,-12,-25,-143,-121,122,303,142
-36,-4531,-31,-34,-22,27,187,139,210,60
-45,-4667,-14,-14,12,94,245,68,55,13
-25,-4534,79,25,53,91,144,0,-27,-57
63,-4124,116,37,14,-46,-47,-14,-12,-91
107,-3496,40,-14,-34,-108,-40,-23,-33,-30
14,-2871,-33,-25,-36,-73,98,-3,-12,7
22,-2121,34,6,4,-44,145,37,79,13
90,-1280,89,55,59,-9,118,86,127,-73
86,-664,67,77,120,69,164,141,135,-144
-50,-490,-9,68,149,118,230,216,169,-103
-103,-652,-93,-11,73,35,135,235,157,-61
-65,-1100,-125,-38,54,-3,45,183,55,-108
102,-1915,-45,6,80,3,-65,49,-74,-123
183,-2844,42,6,12,-39,-207,-57,-90,-106
-33,-3818,13,-9,-41,-31,-163,-53,-14,-60
-339,-4727,-32,-32,-29,120,121,-53,-44,-66
-273,-5443,-49,-56,4,320,430,-14,-56,-99
-169,-5915,-63,-83,-18,278,387,37,-25,0
-207,-5959,-74,-73,-56,80,179,-23,-68,51
-176,-5666,-15,-82,-94,-77,76,-132,-113,80
65,-5028,-17,-107,-138,-155,12,-131,-95,173
280,-4219,-39,-44,-56,-96,-4,-108,-71,189
184,-3455,19,-1,20,3,35,-87,-43,81
-41,-2497,33,22,39,54,61,-28,0,-38
-105,-1333,42,45,62,63,28,-7,72,-101
-177,-343,29,50,73,63,9,50,206,-108
38,235,-65,32,40,32,-6,119,285,-63
171,370,-55,32,51,58,31,146,194,-77
104,123,58,37,87,115,57,71,-59,-93
48,-520,38,43,99,111,33,-17,-169,-1
63,-1235,7,21,65,54,-8,-5,-91,137
50,-1800,8,-23,12,-5,-59,-19,-91,147
47,-2280,31,-35,1,-46,-118,-77,-145,99
26,-2667,42,-28,-16,-102,-156,-91,-120,93
78,-2747,35,-47,-53,-143,-183,-64,-21,122
110,-2502,0,-50,-57,-155,-239,-66,18,130
75,-2104,-20,-52,-53,-136,-225,-56,48,114
82,-1443,4,-46,-79,-96,-72,0,88,98
148,-640,48,-19,-72,-26,32,-22,8,29
63,133,0,-36,-40,79,85,-50,-98,-45
-68,966,-74,-48,-39,61,21,18,-40,56
33,1815,-170,-94,-105,-49,-99,77,96,293
135,2253,-136,-97,-103,-66,-80,158,234,452
8,2005,-59,34,16,56,29,180,234,405
-174,1486,77,132,128,145,96,166,162,67
-139,839,59,66,73,69,18,80,114,-322
-3,-107,29,34,16,-5,-42,20,44,-502
-29,-1177,70,85,46,-19,-51,60,31,-379
19,-2041,111,91,41,-60,-41,74,52,-154
51,-2781,112,68,30,-48,81,89,43,-65
58,-3381,132,58,37,-69,8,60,17,-69
135,-3609,140,55,23,-129,-148,-34,-42,-98
161,-3474,56,0,-12,-47,-108,-110,-136,-129
76,-3135,-28,-48,-12,131,80,-107,-185,-118
32,-2538,-64,-17,6,169,124,-59,-151,-22
-49,-1853,-32,34,20,35,-27,-68,-109,60
-69,-1036,-14,66,30,-12,-40,-75,-71,61
-202,-154,13,35,22,60,60,-96,-79,-31
-158,677,3,0,4,105,62,-129,-78,-40
-32,1129,-3,-7,-16,123,23,-108,-70,26
15,1092,-29,-24,-41,120,26,-97,-95,66
134,818,-36,-43,-48,47,30,-98,-113,60
53,89,-96,-51,-62,-4,46,-41,-40,16
-151,-904,-74,-33,-44,3,48,-15,-7,-31
-143,-1724,-47,-26,-47,-4,29,-18,-18,-14
-2,-2375,-16,-27,-54,-44,-4,40,36,48
124,-2921,-40,-27,-61,-61,8,150,129,126
124,-3187,-110,9,-13,-9,50,134,4,119
100,-3003,-102,26,2,-35,-8,40,-85,92
54,-2625,16,22,5,-47,-29,3,-20,42
-106,-2125,39,25,40,4,22,18,111,44
-148,-1320,-33,1,17,22,56,110,210,76
-31,-296,68,57,16,11,33,80,134,-19
55,792,97,64,5,-11,-7,27,54,-154
-19,1666,2,14,-15,-27,-67,10,-3,-239
-95,2256,-88,-4,-29,-85,-157,-3,-39,-202
-155,2314,-44,4,-18,-125,-247,-116,-125,-172
-231,1901,84,55,-4,-141,-332,-179,-165,-132
-226,1188,141,96,12,-132,-352,-122,-114,-16
-49,153,138,82,7,-138,-345,-69,-44,89
78,-887,79,19,-44,-157,-210,10,11,145
70,-1926,-6,-23,-57,-71,36,1,-68,104
13,-3000,-62,-67,-55,56,321,-27,-157,51
129,-3745,-59,-40,-41,61,367,29,-91,131
174,-3930,49,32,-3,-26,127,-28,-60,139
69,-3790,12,7,0,-61,16,-76,-48,71
90,-3518,-78,-52,-39,-80,-12,23,78,89
80,-3132,-14,-28,-21,-27,-22,28,87,25
-52,-2624,37,-24,-36,-70,-54,14,89,-78
-219,-2009,22,-16,-41,-56,-42,81,220,-109
-298,-1164,-38,-13,2,36,29,104,203,-106
-334,-304,-179,-75,-17,110,168,79,80,-118
-173,307,-95,-87,-41,111,105,-9,-16,-84
-45,336,42,-6,1,68,-2,-25,-29,15
140,96,2,-20,0,102,94,0,-22,101
330,-599,-41,-29,-11,86,124,-22,-64,179
316,-1695,-50,-31,-4,-4,61,-82,-112,195
77,-2433,-25,-44,-10,-29,-4,-141,-145,97
-88,-2610,-63,-70,-49,10,30,-36,32,75
-49,-2525,-76,-40,-21,64,94,85,200,60
247,-2374,-4,6,24,64,64,78,186,18
405,-2231,52,30,18,-3,-7,89,209,60
283,-2075,89,39,28,-28,14,118,204,3
64,-1820,111,65,66,-2,91,99,34,-112
-194,-1234,56,55,85,4,92,81,-57,-141
-216,-167,-13,21,65,-54,-28,62,-10,-58
-30,1205,14,35,47,-124,-171,2,34,49
-31,2505,-5,25,15,-130,-180,-77,-46,18
-102,3494,-40,7,11,-99,-197,-128,-119,-39
-51,3969,-50,-6,3,-78,-272,-162,-171,-40
101,4051,-42,-14,-17,-19,-193,-177,-251,-18
54,3832,-35,-17,-25,0,-82,-202,-330,-17
-105,3166,-30,-20,-36,-41,-230,-299,-386,7
-111,2338,17,20,0,19,-247,-325,-353,96
-9,1664,-18,15,3,164,111,-161,-233,155
204,1103,-19,-8,-44,134,179,-28,-76,163
168,617,49,12,-42,46,32,-70,9,59
-32,275,59,4,-46,18,160,-2,164,-19
-99,183,90,41,-11,20,290,186,399,18
-112,398,100,52,0,10,196,311,526,68
-112,904,14,15,-1,45,144,337,437,107
-55,1553,7,55,71,107,121,224,250,103
164,2278,62,98,111,109,66,90,79,111
226,3122,46,80,93,75,-7,51,40,24
163,3887,-31,4,20,4,-61,84,63,-93
2,4240,-64,-15,2,2,-24,126,107,-117
-171,4063,-106,-10,23,42,14,107,101,-127
-137,3771,-30,14,11,-2,-23,41,39,-90
182,3210,121,60,-5,-71,-115,-36,-48,-32
394,2024,89,30,-7,-47,-107,-73,-110,0
187,758,-7,-24,-24,-13,-34,-73,-105,4
18,-248,-6,-39,-58,-34,-43,-78,-135,50
-167,-1092,46,3,-41,-1,2,-94,-176,62
-447,-1733,41,44,-16,3,45,-137,-243,-14
-413,-1912,90,87,37,9,2,-213,-344,-130
-357,-1755,69,69,29,39,-3,-201,-317,-170
-187,-1317,31,33,3,24,-14,-97,-142,-88
108,-541,-3,27,8,13,-19,-45,41,-8
77,230,-24,23,27,22,-15,14,189,-10
-9,1032,-7,16,7,-17,-35,116,241,0
-63,1931,-58,-25,-17,-26,-39,185,221,18
-119,2701,-94,-59,-20,-17,-46,169,201,68
-33,3057,-104,-62,0,-5,-39,95,149,101
-46,2867,-81,-44,4,-12,-24,-8,43,49
-59,2409,-55,-55,-17,-28,-19,-67,-27,-10
79,1658,-46,-84,-47,-45,-45,-79,-73,-11
168,639,-44,-72,-39,-45,-35,-25,-88,-53
225,-357,-22,-34,-25,-57,-32,55,-62,-29
177,-1339,-16,-9,-16,-66,-36,105,-23,68
132,-2233,-11,18,33,21,37,103,-50,112
54,-2889,-6,35,71,67,95,116,-30,109
42,-3054,-35,-7,50,51,89,105,-10,63
47,-2942,-73,-59,14,-3,43,159,157,64
8,-2567,-32,-34,20,-23,5,186,254,33
21,-1861,63,43,39,-38,-39,126,192,-34
0,-1119,79,70,28,-63,-60,45,115,-58
5,-284,42,60,27,-77,-123,-115,-53,-18
100,580,29,37,25,-80,-188,-211,-190,75
47,1163,-24,-14,9,-35,-162,-218,-223,49
-148,1095,-121,-61,-35,-12,-143,-179,-159,-4
-88,815,-85,-74,-78,-60,-203,-151,-69,32
133,376,0,-26,-56,-118,-258,-140,-31,83
197,-512,23,-3,-20,-96,-146,-106,33,67
32,-1473,-10,-2,0,19,132,46,130,-18
-25,-2390,-25,7,27,122,348,204,136,-85
-143,-3212,-89,26,73,184,336,135,-20,-142
-157,-3771,-111,22,89,193,274,52,-82,-133
-53,-3814,-65,35,60,87,103,39,-35,-73
-44,-3542,-78,65,85,57,70,-20,-39,-160
0,-3094,2,62,84,74,107,9,-35,-159
36,-2340,-17,42,63,84,104,81,32,-13
210,-1307,-24,19,28,29,-5,-8,-18,34
339,-305,-46,-65,-55,-57,-93,-109,-82,35
176,660,-209,-221,-215,-164,-114,-15,62,208
-136,1396,-141,-184,-196,-138,-77,74,175,304
-223,1824,30,-45,-73,-72,-80,10,79,236
-179,1757,93,27,17,-11,-31,45,77,239
-110,1426,126,97,83,72,40,73,36,157
6,816,135,119,107,96,74,71,-34,-12
49,-111,139,117,95,59,44,-9,-204,-211
107,-991,103,64,31,-60,-93,-137,-322,-365
278,-1813,42,15,-18,-150,-175,-120,-177,-294
458,-2554,12,-18,-50,-190,-215,-59,12,-77
284,-3045,-18,-33,-55,-140,-158,-78,30,-7
-151,-3080,-9,-23,-31,-40,-100,-115,-27,-78
-316,-2850,-27,-4,-11,4,-137,-68,81,-109
-251,-2499,-22,7,25,86,88,88,229,-71
-350,-1863,13,42,61,151,243,144,158,-111
-278,-1010,37,69,80,134,245,162,92,-76
-119,18,47,48,38,22,169,144,100,-5
-166,1116,33,29,5,-1,21,54,94,-29
-253,1929,-37,-8,17,164,51,11,106,-153
-179,2225,-65,-24,26,297,137,63,92,-211
70,2136,7,8,15,180,124,113,116,-110
97,1707,20,15,2,37,99,91,131,-16
69,859,-2,-7,-10,-16,36,31,25,39
176,-198,-28,-34,-50,-85,-46,59,39,213
161,-1258,-52,-66,-50,-87,-46,83,94,344
167,-2119,6,-5,0,-40,8,84,90,355
206,-2642,65,63,33,-70,-16,65,63,276
143,-2754,115,69,20,-166,-132,-10,-33,43
47,-2601,152,68,0,-221,-231,-83,-117,-161
-92,-2414,115,32,-6,-199,-259,-100,-145,-280
-41,-2041,32,2,-18,-159,-261,-68,-102,-237
239,-1284,0,7,5,-109,-247,-21,-3,-36
255,-349,-33,14,44,41,10,-29,-38,-11
88,932,70,68,83,123,199,-78,-165,-119
-69,2143,139,95,66,-13,59,-73,-134,-101
-178,3135,128,76,22,-125,-104,-100,-119,-66
-213,3681,76,23,-16,-77,-68,-74,-103,-65
-223,3504,-78,-62,-37,132,204,-90,-146,-118
-123,3059,-168,-96,-35,310,354,-82,-161,-101
-111,2362,-125,-82,-41,292,313,-34,-102,-38
-22,1693,-54,-30,-27,104,194,-36,-56,20
4,1104,-61,-31,-45,-2,128,-19,-32,48
43,637,-67,-53,-46,20,105,-45,-65,50
160,428,-52,-39,-29,87,78,-88,-138,59
114,528,-37,-36,-28,130,103,-39,-92,31
4,940,-52,-39,-30,68,133,21,-24,-14
-74,1575,-63,-45,-37,24,118,0,-31,-71
-42,2494,-35,-37,-39,1,7,-9,-14,-62
7,3528,12,5,-2,-26,-45,15,25,-58
-70,4512,39,47,14,-47,-48,5,6,-81
-35,5631,45,55,12,-60,-60,8,0,-32
5,6720,52,34,-10,-72,-92,51,55,73
-30,7431,-15,-8,-43,-38,-71,23,-11,81
-61,7549,-32,-7,-12,48,-16,-61,-139,20
31,7472,42,16,-23,3,-76,-85,-124,76
120,7005,6,6,-45,-90,-128,-83,-77,109
168,6139,-116,-24,-57,-122,-139,-21,36,101
219,5252,-90,-41,-87,-137,-167,96,231,139
198,4382,28,-14,-62,-127,-178,110,252,70
140,3533,79,19,-36,-91,-160,23,113,-2
132,2886,23,-21,-53,0,-69,5,22,68
141,2538,4,-30,-43,55,-25,-19,-5,99
68,2315,28,6,-14,13,10,-29,9,85
-140,2252,48,15,-10,-38,8,-34,11,27
-281,2466,4,-22,-15,-2,-13,-51,24,-17
-394,2678,-151,-52,7,92,78,-8,55,-61
-289,3028,-148,-15,54,146,202,15,48,-128
-202,3600,49,59,96,140,231,30,-15,-168
-134,4002,68,83,92,91,113,59,-63,-102
-89,3848,-7,43,64,72,57,65,-69,-33
-48,3261,-10,0,39,69,67,33,-72,33
92,2507,-2,-14,8,39,22,-30,-88,56
-48,1276,-32,-24,-4,36,43,12,17,-4
-97,-17,-14,-32,-21,3,94,43,63,-36
24,-1010,62,1,-1,-4,47,-36,-55,-28
100,-1852,63,3,0,-30,-22,-26,-45,51
129,-2566,38,-2,-22,-40,-11,25,79,87
121,-2920,67,22,-22,-66,-27,39,201,81
76,-2911,65,24,-3,-83,-37,17,241,49
68,-2666,15,4,4,-92,-47,3,177,42
15,-2153,-17,-19,-5,-100,-94,-21,128,37
-45,-1436,-32,-34,-22,-97,-146,-45,130,-8
12,-654,5,2,-5,-93,-211,-113,-12,-94
-11,294,54,40,24,-54,-249,-198,-245,-194
-205,1235,60,48,42,-5,-305,-218,-341,-225
-325,1922,23,17,13,-50,-320,-140,-263,-160
-123,2134,-46,-40,-39,-106,-96,5,-63,7
45,2057,-158,-115,-92,24,228,57,44,72
144,1731,-107,-101,-72,173,217,-83,-41,36
161,937,-8,-48,-53,145,96,-75,40,69
-12,22,13,-48,-45,116,260,133,286,77
