-174,1671,85,35,45,34,13,-18,-53,-298
-224,2377,53,22,35,50,26,7,-10,-211
-192,3047,35,21,42,71,29,12,-37,-222
-108,3408,44,47,62,84,20,-3,-68,-207
13,3363,-21,33,45,51,0,-25,-80,-178
180,3079,-58,-27,-6,-6,-30,-40,-45,-19
179,2439,-71,-75,-55,-45,-37,-41,-5,116
120,1620,-54,-68,-66,-58,-15,-51,-28,48
79,859,-35,-43,-41,-43,16,-59,-78,-80
123,214,7,-1,-5,-4,43,-73,-140,-149
165,-262,52,37,47,25,73,-57,-156,-128
85,-597,79,58,70,40,87,-39,-108,-70
-51,-657,108,91,102,67,83,-6,-58,-124
-89,-490,97,83,92,62,62,26,8,-223
-89,-107,73,32,62,48,53,23,22,-199
-54,553,41,15,37,25,40,-18,24,-76
-18,1188,-3,4,3,16,14,-45,25,-8
-16,1984,-21,-5,-23,-5,-4,-68,-3,-7
-32,2895,-41,-7,-45,-29,-30,-61,-16,-28
-67,3858,-47,6,-12,-4,-37,4,10,-40
-72,4615,-5,14,-4,15,-23,88,2,-29
-21,4581,-10,-22,-29,-3,-24,105,-19,41
-21,4201,-31,-34,-44,-14,-9,92,-11,98
-96,3544,-22,-16,-32,2,20,61,11,88
-134,2801,-6,-9,-29,10,31,21,20,65
-30,2285,20,7,-14,8,13,-2,37,66
48,1909,36,27,17,7,14,-3,59,24
18,1388,31,32,29,9,31,19,112,-62
-21,812,2,24,16,23,30,66,172,-67
-20,-207,-18,-23,8,21,26,92,159,-29
-2,-648,-2,-29,7,4,4,57,86,-24
68,-238,25,-19,3,-25,-18,-4,-5,-39
95,658,22,-20,-6,-25,-31,-14,-16,6
91,1361,25,-20,-8,-30,-55,-16,-4,84
94,1897,9,-20,-9,-36,-67,-16,20,157
81,2458,6,-13,1,-20,-31,-35,27,161
75,2707,-14,-10,16,12,-7,-57,-14,86
61,2573,12,13,39,38,-3,-60,-43,5
8,2201,38,42,53,43,4,-67,-70,-32
-46,1581,11,22,31,6,-1,-79,-73,-106
26,538,-16,-25,-38,-60,-62,-87,-90,-135
-4,-573,-25,-42,-59,-72,-81,-90,-70,-79
-37,-1293,-32,-40,-51,-68,-58,-68,-34,-29
-9,-1793,-17,-21,-36,-53,-34,-24,-53,-28
-2,-2057,3,0,-28,-34,-13,33,-28,-28
19,-2047,-47,-14,-27,-30,-8,104,26,-7
106,-1872,-46,-41,-46,-33,-3,103,20,52
196,-1445,-60,-58,-73,-47,-13,47,13,121
192,-782,-88,-67,-66,-54,-33,-20,18,197
122,-53,-76,-33,-29,-22,-30,-53,13,217
51,611,-23,-2,-13,0,-21,-48,9,153
-69,1178,-17,3,-2,14,-14,-24,7,105
-259,1708,-47,15,46,62,28,17,22,30
-428,2472,-13,27,79,95,64,41,11,-114
-345,3259,-17,4,30,46,28,-1,-6,-152
-156,3419,-16,-24,-9,-8,-27,-48,-27,-76
-39,3073,-28,-26,-5,-31,-40,-48,-8,8
-6,2526,-19,-11,2,-20,-25,-29,8,43
-8,1985,7,3,9,-15,-5,6,12,25
-8,1408,22,6,-2,-18,17,23,29,38
30,847,16,-6,-17,-32,63,41,54,86
61,614,7,-6,-19,-29,75,52,74,132
49,629,-29,-12,-30,-26,48,49,50,137
48,734,-73,-30,-49,-46,0,17,39,98
60,1066,-67,-43,-50,-56,-37,4,74,81
118,1830,-135,-47,-38,-62,-43,-6,21,58
128,2837,-146,-1,-24,-34,-46,-33,-35,-38
45,3360,-48,20,5,7,-30,-15,-62,-75
4,3673,44,24,33,20,-22,-11,-81,-71
29,3792,39,6,11,-6,-56,-52,-80,-19
31,3666,31,-23,-22,-31,-67,-75,-68,90
-28,3428,14,-17,-9,-2,-9,-51,-41,90
-88,3182,27,13,35,33,40,-10,-38,-56
-59,3036,34,12,42,42,44,7,-22,-44
-45,2722,45,23,51,51,53,20,-29,78
-39,2153,36,26,30,58,63,23,-19,207
35,1773,27,12,7,35,36,29,30,358
103,1524,-24,-3,-13,-23,-6,-3,0,369
86,1456,2,-17,-15,-51,-28,-37,-43,294
38,1525,8,-34,-42,-62,-46,-50,-57,186
38,1649,-46,-69,-76,-87,-90,-81,-61,-21
55,1801,-42,-56,-61,-81,-94,-119,-118,-328
-8,1925,46,-7,-2,-21,-61,-112,-127,-340
-83,1947,48,23,19,19,-22,-48,-66,-157
-100,1931,22,22,44,57,21,27,-22,-141
-49,1835,38,37,82,90,49,65,-6,-227
-32,1710,68,64,102,91,72,60,-20,-249
-34,1611,8,41,77,60,70,30,9,-166
15,1523,-119,17,42,31,53,5,22,-69
61,1395,-90,18,30,10,34,-13,28,32
11,1280,-96,24,28,11,41,-10,32,101
-89,1156,-87,42,30,31,61,18,29,101
-97,920,-94,29,14,15,60,33,60,96
-77,798,-23,7,7,-12,54,38,43,7
-39,1009,86,40,23,-8,46,24,8,-28
-25,1084,103,51,62,11,46,17,-24,-11
64,1040,92,39,67,2,23,-35,-57,-56
74,973,38,32,36,-24,-20,-85,-107,-113
3,895,1,0,0,-51,-48,-118,-111,-158
52,839,38,-29,-22,-43,-61,-89,-52,-134
17,778,52,-13,0,0,-48,-38,23,-91
-55,729,53,1,9,22,-33,-33,-12,-94
-92,704,54,22,20,22,-40,-44,-84,-68
-107,666,41,24,26,20,-43,-58,-104,-33
-65,626,35,7,18,22,-36,-65,-87,18
-81,577,2,1,0,26,-27,-26,17,53
-68,476,-31,-24,-26,15,-22,25,110,78
31,-149,-22,-47,-56,-15,-27,74,145,114
86,-1648,-20,-49,-75,-42,-30,122,211,155
145,-2360,-20,-49,-65,-44,-16,156,271,154
212,-1490,-24,-50,-67,-59,-23,133,211,145
161,-293,-27,-45,-79,-84,-71,43,114,105
57,199,-86,-37,-79,-95,-93,-6,76,80
8,377,-47,-48,-73,-89,-77,-21,56,133
-19,441,-17,-52,-57,-48,-43,-16,36,145
-128,382,0,-12,-1,21,-9,0,-10,92
-203,444,26,23,38,56,10,12,6,119
-243,627,43,47,55,66,28,30,15,88
-244,703,39,52,71,66,29,4,-54,-47
-157,689,31,43,63,40,-15,-73,-138,-162
-10,625,34,38,41,23,-50,-86,-113,-160
114,575,49,7,16,-10,-58,-52,12,-116
276,546,27,-24,-22,-38,-87,-53,22,-35
289,483,5,-19,-22,-36,-63,-55,1,-1
126,327,4,-10,-17,-17,-17,-12,25,-37
-74,5,11,10,-5,1,37,13,4,-156
-220,-307,33,41,18,17,65,5,-22,-286
-178,-308,55,60,33,25,60,-1,-3,-178
-44,-406,26,29,0,-13,30,-5,41,42
10,-503,-12,-8,-32,-53,8,-11,74,113
-17,-537,-25,-15,-56,-55,-20,-13,51,94
-40,-608,-27,-17,-52,-44,-47,-14,64,92
-8,-566,-21,-19,-42,-27,-53,-7,74,83
41,-442,-9,-17,-41,-10,-51,1,37,77
-8,-257,-30,-25,-38,-11,-46,0,38,77
-126,-89,-72,-34,-38,-14,-34,-10,50,108
-191,-123,-61,-36,-27,-3,-15,-4,43,119
-124,-349,-41,-25,-9,20,7,-13,29,89
40,-678,-39,-20,-27,6,0,-39,8,43
78,-1242,-20,-15,-22,-12,-2,-34,-20,-71
38,-1856,-44,-50,-55,-45,-16,-31,-78,-153
132,-2356,-39,-70,-83,-74,-36,11,-96,-35
191,-2748,-28,-83,-87,-90,-56,77,-32,55
159,-3003,-30,-73,-71,-68,-15,104,7,96
101,-3263,27,2,18,17,76,96,5,62
72,-3169,101,90,123,100,143,72,-21,-1
0,-2662,124,117,170,141,149,32,-49,-80
-65,-1976,102,86,139,110,106,-13,-71,-105
-58,-1324,47,41,87,49,29,-15,-22,-20
-68,-900,17,13,58,15,-5,12,18,35
-79,69,-1,16,53,29,30,26,72,10
-39,936,-9,32,59,37,49,9,51,0
-28,1263,-13,36,61,41,57,4,64,13
-44,1485,1,6,31,22,10,-11,60,-10
86,1415,-11,-10,9,-16,-53,-41,12,-34
76,1086,-25,-5,0,-5,-44,-40,-4,-3
-72,787,-45,-7,-14,-4,-23,-38,-27,-8
-89,418,-47,-11,-17,-22,4,-39,-25,-2
-31,-98,-108,-29,-4,-31,8,-23,-33,41
83,-548,-51,-32,0,-53,-34,-40,-28,28
166,-999,12,-20,11,-58,-25,-41,-11,-8
53,-863,5,-4,36,-23,35,13,1,20
-11,-620,8,15,66,-8,46,83,11,37
18,-456,9,27,60,-1,29,114,0,-18
25,69,-40,16,39,6,15,108,-30,-102
54,642,-40,-22,6,-16,-4,70,-19,-108
66,1086,-84,-83,-59,-34,-7,64,17,-21
55,1401,-129,-100,-93,-38,-19,30,15,83
94,1657,-81,-65,-88,-56,-75,-65,-73,104
95,1695,16,-23,-47,-22,-45,-94,-149,65
87,1594,35,-3,-22,10,-22,-93,-159,46
96,1416,21,-2,-11,28,-12,-74,-130,-2
126,1052,-6,6,-4,37,23,-38,-59,-16
101,401,29,0,-20,34,45,13,44,37
58,-277,18,-8,-28,22,75,54,204,48
106,-618,22,-26,-41,7,89,71,224,56
142,-621,27,-52,-54,-26,27,16,69,47
94,-1018,27,-28,-30,-47,-51,-57,-62,-3
55,-1443,26,-7,-37,-56,-65,-68,-87,25
65,-1808,28,-10,-45,-35,-19,-49,-93,157
-46,-2060,50,34,11,27,25,-12,-30,146
-147,-1994,51,38,29,57,32,64,112,2
-96,-1605,26,-2,-19,28,15,99,215,-90
17,-1110,0,-45,-75,4,4,69,221,-113
138,-581,-18,-66,-107,-31,-17,8,158,-106
213,-325,-79,-118,-163,-113,-108,-66,47,9
213,-653,-117,-120,-164,-171,-185,-105,35,227
162,-1299,-57,-76,-99,-145,-163,-95,99,416
69,-1713,-41,-41,-42,-68,-75,-11,166,495
-184,-2634,66,102,127,108,99,109,180,360
-509,-3603,201,255,296,267,240,177,105,41
-397,-4279,157,178,212,200,181,89,-35,-283
-404,-5094,109,94,124,141,130,35,-129,-510
-437,-5661,41,21,70,82,95,-34,-236,-568
-229,-5956,12,17,56,56,64,-99,-326,-385
-118,-6064,8,1,22,38,47,-65,-244,-181
-21,-6349,-22,-62,-28,25,18,-19,-157,-48
82,-6439,-1,-53,-47,0,-8,-46,-175,7
159,-6117,65,45,-31,-45,-68,-98,-176,21
141,-5746,88,101,11,-49,-108,-87,-56,55
17,-5203,55,66,27,-6,-81,0,137,41
-142,-4761,1,33,26,45,12,76,209,-113
-218,-5282,-52,-34,-38,37,52,107,189,-218
-140,-5733,-107,-119,-128,-13,56,153,204,-138
9,-6214,-167,-234,-254,-84,66,195,226,68
192,-6431,-214,-325,-354,-141,40,197,216,252
252,-7013,-161,-228,-266,-122,-13,118,106,194
225,-7666,-30,-68,-85,-70,-80,-12,20,95
118,-8197,79,89,90,5,-74,-48,63,59
-119,-9113,173,204,247,92,-11,-32,27,-81
-298,-10030,201,218,265,108,57,-20,-42,-226
-163,-10171,120,116,143,64,82,18,0,-106
32,-9793,1,-31,-24,21,96,83,104,65
54,-9228,-80,-140,-155,-31,97,122,152,92
-24,-8663,-109,-191,-225,-108,39,74,60,2
-56,-8141,-97,-125,-148,-104,-29,-44,-67,-71
-3,-7625,-59,-20,-48,-53,-93,-115,-120,-51
27,-7092,-2,-8,-23,-51,-121,-113,-97,-12
110,-6591,0,-19,-36,-88,-202,-180,-166,21
289,-6335,-38,-65,-90,-141,-283,-272,-236,130
336,-6015,-72,-84,-95,-129,-263,-263,-231,154
217,-5660,-91,-80,-77,-87,-168,-156,-172,150
122,-5332,-70,-60,-62,-56,-64,-43,-21,221
-44,-5017,-20,-2,-32,-6,24,55,42,163
-432,-4715,126,165,149,139,95,72,-27,-234
-592,-4440,181,217,231,167,71,29,-45,-534
-324,-4181,137,131,185,124,39,3,-67,-415
13,-3944,69,20,74,37,0,-4,-20,-129
111,-3717,44,13,37,-1,-47,-21,-19,26
132,-3499,58,62,67,29,-14,-3,-30,53
252,-3288,7,31,34,13,2,35,31,118
242,-3088,-64,-14,-10,-12,-18,18,43,157
52,-2896,-53,-26,-24,-11,-22,-43,-90,22
-107,-2726,-33,-47,-40,11,8,-32,-186,-68
-171,-2558,-67,-93,-72,48,67,55,-101,21
-191,-2399,-97,-124,-104,70,104,129,33,117
-144,-2262,-59,-80,-74,43,59,138,235,193
-131,-2135,20,-7,1,22,25,147,370,187
42,-1994,0,-35,-39,-21,11,116,319,118
242,-1868,-33,-84,-109,-66,28,137,276,38
252,-1755,-30,-90,-128,-105,-2,122,211,-101
102,-1663,-2,-40,-76,-123,-80,33,105,-184
-1,-1574,4,-7,-28,-100,-114,-31,-13,-165
158,-1484,0,-32,-60,-86,-55,5,41,52
176,-1400,-6,-65,-97,-75,2,42,106,202
73,-1317,-13,-59,-90,-46,17,-9,0,55
0,-1230,10,-17,-39,7,38,-49,-154,-164
-131,-1142,19,12,10,70,105,11,-127,-228
-316,-1054,51,82,110,180,150,35,-109,-294
-278,-978,40,79,89,125,61,-3,-149,-250
-135,-901,16,33,64,55,-9,-29,-123,-131
-35,-735,25,62,99,52,-35,-73,-166,-85
5,251,35,72,102,56,2,-148,-304,-20
25,2237,4,42,48,32,10,-216,-460,87
76,3437,-123,12,0,-15,-10,-251,-587,167
138,3632,-200,-24,-38,-61,-12,-244,-542,202
206,3694,-186,-104,-120,-85,-10,-170,-414,165
212,3739,-152,-207,-202,-96,-8,-77,-226,54
86,3435,-166,-229,-212,-108,9,163,268,30
-30,3088,-47,-91,-85,-84,6,316,606,-56
55,2385,102,77,69,-94,-138,213,586,4
139,797,115,128,132,-86,-209,113,369,186
190,-588,27,19,58,-83,-155,74,264,270
199,-716,20,10,62,-39,-74,100,381,259
54,-903,84,97,162,65,7,106,311,157
-204,-1733,94,141,228,155,71,36,118,-76
-190,-1908,104,152,212,169,84,35,38,-290
-77,-1428,82,83,110,135,81,99,114,-396
-53,-227,51,23,0,81,72,92,116,-481
-31,520,-23,-100,-164,8,96,143,174,-271
-91,360,-157,-266,-299,-38,158,231,290,-27
-143,319,-217,-259,-234,3,194,213,215,-4
28,70,-255,-291,-251,11,245,237,178,47
264,-1279,-420,-462,-400,-83,266,303,252,212
280,-1910,-423,-473,-396,-140,169,252,224,247
195,-1830,-197,-243,-199,-106,2,20,12,56
266,-1736,57,-15,-74,-99,-130,-149,-124,-57
337,-1645,110,113,8,-12,-97,-153,-129,69
276,-1550,234,338,241,112,-95,-208,-196,155
224,-1461,349,418,254,72,-137,-220,-209,240
81,-1372,369,389,262,62,-145,-217,-194,271
-78,-1287,316,302,258,99,-63,-147,-178,268
-93,-1202,135,76,95,-18,-68,-111,-135,293
-220,-1110,57,13,37,-121,-102,-123,-169,184
-584,-1038,157,174,194,53,60,-22,-141,-2
-757,-983,254,262,307,199,158,40,-118,-57
-469,-915,227,249,297,201,109,22,-182,-68
68,-831,166,147,178,61,-18,-63,-242,-90
333,-723,95,30,45,-53,-65,-89,-169,-96
24,-644,4,-31,-23,-54,-46,-45,-182,-199
-120,-594,-91,-105,-93,-58,-17,-36,-247,-221
-55,-586,-132,-175,-158,-66,48,35,-50,-98
-12,-617,-106,-174,-178,-110,45,69,123,-85
40,-632,-125,-228,-243,-97,131,225,304,-54
255,-523,-244,-470,-559,-218,257,533,688,184
311,219,-225,-491,-675,-356,171,532,790,191
16,1682,54,63,23,-71,-38,76,273,-240
-132,3535,228,405,451,112,-175,-172,-4,-282
-122,5115,103,348,419,130,-145,-79,79,-11
-79,6082,55,255,346,124,-122,-34,139,106
0,7358,103,270,364,143,-161,-160,-1,51
162,8793,100,192,277,149,-121,-120,26,141
159,10185,11,76,151,97,-102,-62,70,228
332,11790,-172,-100,37,178,5,-23,46,370
304,11279,-107,-61,17,185,66,31,90,444
-149,9852,-41,17,37,128,64,46,65,188
-377,9209,183,192,169,94,-39,-144,-203,-377
-338,8756,265,267,245,148,41,-178,-391,-569
-281,8137,161,184,163,95,123,-198,-604,-397
-98,7849,137,164,154,82,135,-295,-840,-153
-7,7402,109,159,175,129,143,-375,-1083,118
71,6233,-20,-11,-9,0,63,-427,-1172,321
116,5399,-177,-166,-192,-125,-34,-470,-1113,247
35,5448,-230,-226,-264,-105,-28,-303,-561,68
31,5578,-250,-374,-439,-159,31,174,469,107
46,5824,-245,-444,-566,-272,42,540,1110,102
-152,6315,-36,-174,-321,-233,-55,429,1121,-233
-208,3941,-5,28,-3,-12,-32,306,927,-345
11,903,74,97,100,12,-85,211,653,-165
250,1260,82,25,58,19,-37,195,518,70
319,1830,174,102,139,63,-100,71,449,106
351,2311,252,182,179,-32,-221,-60,332,41
265,2865,220,221,240,24,-156,-111,112,-97
196,3181,63,122,181,31,-91,-84,52,-139
227,3647,-2,37,96,0,-59,-20,129,-70
30,4063,86,89,135,74,4,46,158,-89
-355,4507,109,180,213,133,58,69,107,-250
-503,5659,126,210,216,122,50,55,52,-334
-385,6903,117,143,137,95,45,66,42,-214
-69,7747,-22,-100,-143,-26,122,185,237,119
233,7892,-163,-346,-427,-169,164,308,383,415
102,7635,-77,-202,-235,-73,118,145,123,198
-178,7256,86,138,219,220,60,-128,-191,-130
-176,6846,73,155,262,279,43,-132,-129,-61
-17,6468,-74,-67,9,80,15,4,79,169
84,6084,-110,-134,-136,-119,-128,-95,15,258
60,5712,-130,-144,-245,-263,-226,-273,-137,303
152,5373,-180,-197,-362,-345,-275,-384,-207,364
453,5050,-209,-238,-431,-388,-301,-410,-167,524
646,4756,-220,-295,-466,-432,-291,-299,7,773
794,4470,-144,-193,-322,-363,-293,-238,81,832
869,4213,-43,-33,-72,-162,-207,-142,141,809
316,3959,225,264,270,184,56,121,228,548
-533,3716,436,476,471,383,242,275,88,-127
-663,3497,370,415,369,273,149,199,-74,-538
-623,3287,260,338,307,221,73,75,-222,-797
-580,3092,256,379,395,366,220,109,-292,-879
-467,2913,133,217,213,303,282,213,-149,-612
-310,2741,5,-26,-32,175,271,172,-32,-494
-233,2584,49,82,190,273,165,0,-141,-477
-305,2428,77,151,285,291,96,-78,-141,-354
-162,2288,-69,-41,53,145,75,-30,-49,-159
53,2141,-247,-188,-108,85,61,-13,-3,-48
194,1999,-219,-194,-159,-34,-60,-94,-27,-9
54,1885,-15,0,-7,-117,-252,-276,-165,-92
-32,1781,77,122,91,-26,-188,-229,-199,-99
-157,1680,81,132,132,161,42,-27,-112,-59
-179,1573,92,113,120,244,190,111,6,-53
122,1478,-75,-129,-137,90,190,173,76,60
374,1384,-241,-323,-331,-70,117,97,-3,164
336,1291,-278,-356,-398,-219,4,-8,-80,236
232,1229,-237,-356,-466,-464,-180,-53,20,388
160,1149,-47,-115,-242,-505,-304,-120,28,302
-174,1085,235,324,337,-121,-267,-214,-136,-7
-547,1013,302,490,727,277,-172,-287,-257,-293
-164,955,103,221,535,322,-118,-207,-132,-234
341,902,-51,-50,158,144,-150,-137,34,59
282,852,-30,-25,37,-23,-217,-131,-1,55
201,805,25,126,73,-35,-130,-29,5,32
-439,756,143,339,256,188,223,171,-40,-35
-1148,705,172,408,399,428,513,266,-240,-342
-586,651,-123,-16,-42,164,371,196,-182,-207
143,591,-266,-173,-228,-45,175,75,-133,-140
218,517,-206,41,-71,-61,92,13,-148,-192
19,161,-18,170,12,46,92,36,-34,-213
39,-562,166,166,-54,-29,-13,31,126,-136
142,-1217,130,121,-69,-64,-48,13,223,-35
230,-1598,116,51,-71,14,87,92,223,57
262,-1714,-86,-286,-351,-37,214,236,202,193
469,-2086,-301,-591,-689,-231,173,234,85,304
390,-6107,-131,-477,-607,-336,-48,16,-94,211
316,-8311,-10,-267,-365,-349,-286,-174,-91,228
579,-6782,-136,-391,-522,-428,-251,-60,72,491
594,-5918,-205,-366,-476,-374,-224,-136,-32,483
507,-5464,-164,-213,-215,-170,-123,-118,24,303
484,-5192,-32,-56,12,-55,-85,40,275,340
-435,-5408,365,426,591,312,48,164,283,50
-1434,-6041,513,616,836,547,196,142,-16,-646
-693,-6032,436,505,678,415,77,-98,-281,-815
3,-6089,361,403,563,418,101,-47,-114,-439
-365,-6259,312,325,424,393,163,98,69,-364
-475,-6419,303,267,330,270,142,68,-24,-429
-256,-6114,225,170,228,171,120,-5,-73,-384
81,-5568,89,12,99,125,124,-28,-34,-301
222,-5072,-30,-104,20,108,148,-17,-13,-190
139,-4541,-105,-135,-41,18,107,8,11,-105
116,-3569,-215,-168,-100,-42,91,85,115,-28
260,-2386,-269,-325,-336,-198,105,271,336,257
313,-1206,-288,-453,-567,-407,17,297,379,453
-66,-357,-45,-59,-131,-106,-52,-99,-109,-20
-179,789,63,142,154,179,73,-33,-195,-148
-10,1816,34,67,94,155,95,80,-85,26
38,2327,49,74,99,90,-40,-110,-178,77
60,2551,77,103,101,-24,-160,-241,-312,84
122,2882,-43,53,41,-110,-188,-205,-281,250
181,2920,-148,23,-1,-129,-166,-125,-114,367
257,3439,-31,37,1,-117,-135,-65,82,327
324,3979,82,68,32,-47,-84,-23,181,179
284,4429,92,100,33,-49,-62,0,139,31
111,4869,-30,12,-66,-160,-130,-22,244,99
39,4917,-104,-103,-180,-239,-190,-69,233,200
110,4865,-114,-142,-211,-209,-153,-37,160,128
195,4690,-160,-205,-281,-233,-127,-22,94,16
133,4434,-164,-201,-288,-213,-88,-27,15,-50
13,4180,-17,-54,-141,-122,-38,-42,3,-159
-194,3932,117,102,12,-9,19,-32,-50,-250
-558,3691,45,181,163,147,142,48,-92,-360
-655,3487,-26,236,271,234,154,66,-77,-330
-537,3273,8,258,254,222,121,72,-11,-196
-333,3078,91,243,194,153,63,29,-68,-170
-59,2894,148,158,131,92,33,-4,-108,-131
-11,2725,16,-25,45,-9,-14,-53,-118,-88
34,2548,-38,61,50,-149,-162,-189,-182,-84
373,2393,38,270,46,-202,-226,-189,-133,65
635,2252,-78,184,-21,-128,-73,-76,4,238
730,2117,-50,75,-31,0,105,-5,31,254
663,1992,17,83,76,76,69,-27,13,210
234,1869,-95,-92,-3,38,26,27,117,358
-222,1751,-304,-442,-266,-23,76,88,137,420
-58,1650,-119,-509,-428,-56,78,47,66,336
-74,1547,-16,-439,-476,-65,134,158,162,341
-277,1460,-114,-432,-499,-95,275,397,305,204
-674,1384,-47,-233,-290,-12,271,351,32,-339
-901,1290,39,21,14,134,155,130,-305,-768
-410,1205,-142,-211,-210,77,257,333,-34,-358
-15,1126,-266,-389,-378,-62,260,378,207,32
74,1048,150,160,251,147,-54,-220,-206,-114
149,921,158,358,535,291,-159,-389,-234,29
250,689,-71,95,279,121,-145,-194,54,344
359,277,-59,-3,149,51,-102,-62,147,453
158,-344,-40,98,261,73,-82,-65,77,332
-343,-987,68,166,389,161,8,-18,-9,68
-519,-1240,189,156,375,353,237,126,-72,-204
-168,-1004,177,114,202,323,234,112,-159,-349
119,-495,162,88,41,176,95,22,-185,-436
56,-167,150,74,-31,102,18,1,-112,-298
92,28,-3,-64,-103,7,-36,14,-12,-162
197,239,-147,-193,-231,-133,-76,33,187,-126
121,455,-106,-147,-284,-266,-192,-6,309,-142
-48,611,41,96,-56,-171,-201,-52,192,-251
83,567,-21,37,-123,-223,-100,34,178,-122
157,336,-224,-265,-499,-372,-36,115,219,84
-117,-142,-287,-248,-465,-304,-48,0,20,-78
0,-913,-300,-311,-503,-214,103,227,170,118
49,-1802,-138,-186,-358,-182,99,250,188,125
-230,-2659,305,471,434,252,-12,-82,-167,-224
-108,-3250,550,672,670,393,-2,-118,-195,-177
80,-3842,498,413,408,116,-70,-117,-97,-45
141,-4260,279,210,365,113,-90,-212,-224,-96
296,-4675,87,41,223,90,-39,-134,-206,53
287,-4577,87,11,145,58,8,21,-154,221
7,-4072,134,63,180,101,51,100,-221,97
-265,-2922,43,31,146,93,34,46,-248,-84
-382,-1606,-107,-128,-40,-21,2,29,-191,-69
-140,-513,-170,-319,-241,-155,-70,-68,-278,-148
469,809,-270,-441,-356,-212,-137,-246,-454,-116
897,1403,-297,-489,-445,-274,-141,-260,-310,268
1066,1364,-202,-367,-364,-305,-239,-239,84,494
997,1257,-29,-93,-160,-242,-235,-145,368,532
787,894,-29,6,-148,-191,0,281,824,808
70,425,35,41,-59,-73,196,509,1016,578
-569,151,150,167,136,32,102,250,596,39
-484,-44,208,306,336,184,46,5,160,-173
-968,-265,185,331,423,304,164,82,83,-327
-1232,-298,136,296,404,317,207,83,-48,-643
-913,-65,145,299,391,321,251,85,-173,-710
-384,451,161,239,301,259,231,93,-145,-429
-212,928,120,148,214,186,142,50,-87,-262
-259,1309,13,32,121,146,110,25,-115,-233
-121,1773,-166,-156,-102,67,154,71,-85,-42
194,2121,-423,-581,-611,-158,273,322,192,391
474,2190,-576,-823,-928,-352,333,435,341,634
214,2064,-331,-321,-389,-150,171,29,-141,173
-91,1889,-1,262,281,86,-115,-373,-506,-212
-120,1900,227,516,604,84,-361,-517,-527,-221
-23,1867,164,449,612,118,-292,-403,-343,-122
3,1770,-45,200,434,226,-40,-89,-117,-67
-3,1637,33,59,189,174,12,-55,-236,-174
192,1466,182,59,41,-10,-152,-298,-557,-374
300,1311,193,70,-20,-76,-164,-307,-512,-379
247,1148,72,5,-74,-82,-111,-123,-83,-249
102,1038,18,-24,-63,-53,-70,11,213,-87
-278,898,43,8,-10,28,27,98,252,-3
-571,798,39,14,7,111,159,217,241,-165
-375,777,-124,-115,-96,42,182,315,325,-220
54,761,-214,-184,-103,-58,138,263,368,-116
186,785,-172,-75,130,-7,69,94,250,-128
-1,873,-150,33,296,17,-89,-67,68,-195
93,914,-290,-218,-119,-183,-29,197,373,305
107,863,-133,-102,-279,-169,57,245,354,362
118,781,305,495,73,-51,-205,-185,-135,-163
344,692,411,658,200,59,-267,-353,-318,-224
577,393,225,326,19,66,-111,-125,-68,96
602,-257,9,93,-64,13,7,66,122,258
164,-998,-49,118,-48,-35,9,94,146,190
-377,-1933,8,61,-43,-41,-30,37,46,-10
-569,-2930,87,-20,-27,14,40,28,-29,-87
72,-6569,-77,-268,-102,5,103,7,-140,137
175,-5977,-170,-319,-225,-140,-31,-165,-200,-1
294,-5628,-189,-289,-240,-160,-90,-196,-159,61
413,-5165,-240,-345,-293,-182,-72,-23,75,261
768,-4224,-234,-406,-394,-361,-260,-70,214,451
1140,-3453,-134,-408,-505,-574,-476,-126,252,725
914,-3168,-138,-392,-513,-577,-455,-11,284,801
131,-3015,-257,-285,-267,-254,-195,69,225,477
-945,-3139,-207,-48,139,215,145,146,132,-37
-1221,-3443,129,260,457,484,363,232,17,-482
-526,-3601,297,357,468,447,396,205,21,-332
23,-3534,208,288,355,333,322,106,-9,-205
307,-3504,199,221,271,217,214,30,-52,-122
-151,-3681,93,162,247,129,105,-20,-94,-172
-572,-3807,-15,140,216,104,75,-30,-90,-279
-314,-3765,-35,195,184,107,78,1,-24,-147
-340,-3394,-138,322,130,50,19,-53,-45,-58
-336,-1626,-141,538,245,25,-24,-121,-93,-13
-136,858,-43,532,299,52,-28,-147,-192,-83
-51,1590,96,287,199,9,-52,-215,-314,-191
-63,2016,139,-160,-65,-119,-54,-165,-279,-103
230,2582,-87,-586,-602,-309,82,175,64,207
-76,2369,6,-225,-195,0,118,48,-125,-39
-70,2356,199,10,-41,58,39,-129,-323,-132
231,2128,287,52,-8,92,14,-189,-400,-67
436,1779,313,107,171,206,-1,-216,-389,-60
631,1680,123,57,216,253,41,-82,-149,70
587,1125,-103,-144,36,194,125,155,202,268
194,409,-213,-294,-127,86,142,265,498,363
-294,-234,-121,-195,-94,-62,6,176,499,304
-497,-505,48,-49,24,-50,-36,72,314,44
-244,-483,91,-116,-110,-63,31,86,223,-41
192,-102,93,-144,-135,-63,-6,-29,22,11
387,224,80,-99,-46,74,68,-27,-7,54
498,459,-70,-257,-227,48,165,133,196,199
164,1016,-193,-398,-398,-119,70,195,334,269
-809,1316,18,-90,-109,-105,-74,2,84,-218
-1162,1579,189,194,201,43,-130,-164,-215,-574
-563,1703,6,13,96,95,-54,-91,-201,-145
-156,1333,-216,-265,-154,61,140,162,16,282
-151,780,-125,-162,-94,79,176,159,-32,99
-168,24,113,157,205,126,9,-133,-323,-178
24,-776,216,228,255,92,-128,-311,-502,-102
217,-1580,76,39,18,-150,-201,-253,-337,215
225,-2416,-35,-77,-131,-322,-252,-215,-209,271
116,-3308,-72,-78,-94,-234,-190,-193,-222,133
-45,-3927,2,5,-3,-133,-119,-129,-124,-28
-77,-4050,80,67,66,-46,-22,42,214,-129
-7,-3825,127,128,167,69,67,183,468,-261
40,-3408,105,162,227,138,80,187,396,-264
79,-2709,69,126,183,100,3,63,132,-177
193,-1378,25,45,75,-27,-90,-49,62,16
294,-199,-41,-23,29,-83,-124,-109,115,201
299,492,-94,-99,-62,-117,-161,-156,75,290
363,872,-67,-152,-167,-134,-163,-140,77,393
398,900,-20,-120,-175,-91,-88,-75,126,404
342,835,-31,-50,-156,-56,-34,-14,125,264
-68,349,67,51,-86,55,183,251,218,-41
-756,-302,102,45,-65,67,282,396,191,-420
-708,-679,20,-29,-97,6,170,259,-40,-504
-341,-1052,-17,3,-20,39,143,131,-177,-371
114,-1346,-48,-23,-52,-43,76,44,-201,-69
391,-1423,-93,-118,-147,-114,21,0,-105,208
470,-1315,-84,-165,-216,-98,82,59,59,314
-315,-149,-10,162,215,130,31,-159,-67,-207
-387,977,172,352,497,352,85,-117,-79,-400
-205,1856,177,295,427,280,43,-30,-15,-200
-67,2762,41,141,248,153,-18,-29,-28,-33
9,3625,-64,7,68,34,-68,-37,-31,-4
45,4052,-80,-63,-28,-37,-92,-52,3,-13
38,4113,-67,-64,-48,-53,-88,-82,-16,-2
7,4107,-52,-67,-71,-56,-50,-54,-30,5
6,4150,-49,-63,-79,-87,-45,-16,20,33
10,3982,-41,-28,-77,-91,-63,35,62,38
18,3690,-124,-110,-123,9,51,142,89,45
162,3567,-167,-200,-232,-94,-3,114,91,64
302,3441,-33,-39,-93,-183,-240,-158,-79,14
352,3248,-10,43,45,-69,-230,-271,-178,6
460,3050,-50,-37,-10,-62,-164,-227,-142,227
407,2863,-107,-129,-121,-103,-94,-156,-51,426
385,2674,-157,-178,-241,-179,-82,-64,86,603
576,2498,-103,-108,-294,-274,-209,-87,112,494
153,2357,13,60,-125,-141,-162,-127,4,79
-878,2234,152,275,223,207,134,29,22,-321
-1283,2104,142,261,255,296,292,231,110,-522
-584,1989,8,93,79,120,170,264,143,-328
-102,1874,-31,101,86,81,57,127,-1,-201
-143,1765,44,153,159,117,10,-7,-162,-359
-131,1643,-9,75,89,29,-54,-71,-182,-361
-115,1535,-12,60,119,25,-64,-106,-180,-231
-255,1437,-66,50,160,84,17,-56,-101,-61
-215,1329,-106,0,84,34,61,-7,-18,75
-75,1201,-102,33,75,-51,-1,-82,-103,25
158,1043,-34,98,119,-54,-20,-128,-207,-24
192,867,-24,62,98,-9,52,-65,-227,7
146,678,-21,18,96,29,83,-52,-217,36
192,601,23,-16,66,81,112,-66,-218,93
231,534,8,-90,-74,127,208,12,-216,129
369,586,-1,-101,-212,41,163,36,-211,165
289,562,197,44,-244,-49,24,-67,-297,46
-171,589,248,56,-247,-152,-102,-161,-382,-89
-558,668,65,-77,-297,-270,-185,-144,-304,-92
-394,710,-96,-199,-371,-326,-196,-36,-2,10
-29,679,-132,-193,-293,-261,-213,-52,96,-86
236,528,-73,-110,-160,-158,-201,-100,44,-195
224,223,-84,-146,-201,-150,-108,12,160,-69
28,-296,-59,-78,-115,-58,-15,144,400,46
80,-93,47,89,103,47,-4,199,660,214
307,661,41,77,157,53,43,293,759,382
-2,714,-20,74,108,51,92,260,529,198
-180,664,-135,33,-75,-64,49,175,288,60
298,611,-238,-193,-381,-280,-18,193,364,432
665,573,-32,-174,-449,-384,-72,149,364,627
129,533,290,167,-16,-46,91,131,171,179
-504,497,321,429,460,377,282,159,17,-298
-652,461,215,345,399,321,264,223,11,-583
-608,415,256,261,291,103,8,-32,-216,-859
-397,360,312,310,441,180,-129,-269,-414,-671
-124,295,169,171,379,236,-83,-204,-310,-242
-31,131,-4,-35,170,165,0,-27,-114,-41
-94,-237,-61,-107,70,135,55,83,3,-44
-89,-893,-66,-103,-39,69,56,132,106,0
-45,-1784,-137,-126,-117,3,26,101,152,35
97,-2886,-179,-171,-124,-54,-29,36,85,67
261,-3936,-120,-199,-128,-72,-29,32,61,87
390,-4938,-23,-120,-47,-34,-16,-12,-16,21
574,-5697,41,-52,19,-19,-33,-54,-63,22
368,-6392,-29,-75,8,-30,-4,14,-37,38
-191,-6886,-145,-152,-101,-91,-21,4,-86,-31
-310,-6970,-392,-394,-351,-151,94,129,6,89
142,-6712,-411,-574,-556,-241,108,195,79,318
365,-6419,-83,-306,-324,-233,-122,-137,-215,140
183,-6371,225,154,153,-50,-270,-413,-491,-108
10,-6447,228,238,290,160,-64,-184,-326,76
-174,-6264,139,165,275,277,122,19,-139,225
-263,-5825,78,155,226,219,97,45,-26,83
-107,-5578,22,118,88,55,10,0,-39,-46
301,-5800,16,65,3,-3,-13,-34,-43,-83
757,-6618,-4,-4,-95,-13,33,33,64,102
769,-7335,-87,-97,-202,-79,51,105,164,292
323,-7967,-109,-83,-151,-129,-72,6,115,290
-319,-8493,-90,-19,-34,-53,-45,37,114,97
-578,-8712,-1,-32,-30,36,74,131,118,-129
-80,-8454,66,-11,-19,88,71,79,153,-164
253,-8464,159,95,86,123,48,-13,118,-171
67,-8420,209,159,131,133,106,38,105,-182
-278,-8417,131,141,117,117,115,69,43,-307
-345,-7889,86,197,154,7,-9,-33,-25,-290
-114,-6550,39,193,165,1,-59,-111,-16,-47
220,-6202,-15,83,62,-26,-60,-119,31,234
218,-6015,-62,77,80,-44,-67,-138,0,196
-112,-5425,-134,94,156,-41,-97,-144,-59,-2
-431,-4609,-206,88,140,-25,-94,-84,-71,-40
-489,-4045,-224,67,134,30,-39,56,-76,-42
-288,-3863,-128,86,196,81,41,205,-10,-6
72,-2986,-48,64,157,120,113,294,39,68
340,-2578,-153,-194,-102,81,204,352,145,82
304,-3301,-65,-424,-408,-92,201,319,233,85
-292,-4275,198,-205,-238,-159,4,29,107,-52
-604,-4687,198,59,134,-54,-165,-265,-35,67
-286,-4934,64,-14,163,-42,-147,-263,-70,270
128,-5346,-99,-276,-101,-109,-13,6,108,411
552,-5336,-210,-511,-384,-136,127,166,169,384
616,-5232,-33,-305,-309,-53,127,-16,-105,71
421,-4656,275,157,37,56,-26,-290,-349,-183
280,-3389,393,365,164,56,-134,-308,-345,-149
113,-2730,223,174,56,-7,-107,-206,-278,-42
12,-2791,52,1,-40,-54,-88,-166,-255,122
2,-3228,-141,-221,-238,-93,0,-51,-175,259
-255,-2992,-197,-286,-318,-149,32,-58,-174,224
-606,-3013,-11,6,-35,-73,-61,-250,-363,-39
-556,-3255,49,218,230,147,11,-179,-276,-157
-284,-3520,-49,125,171,254,230,145,82,-133
263,-3674,-22,14,19,123,207,276,398,-171
804,-3612,63,48,14,-31,22,223,509,-71
692,-3471,17,14,2,-51,7,192,399,112
369,-3289,-68,-24,-24,-71,-42,91,252,90
6,-3091,16,68,70,-57,-55,24,175,-45
-331,-2908,-20,40,116,44,83,144,238,-220
-302,-2727,-74,54,179,139,124,159,185,-247
-263,-2552,-149,-21,80,98,74,100,93,-198
-204,-2398,-104,-86,10,1,-24,23,54,-125
-104,-2252,-1,-39,46,-16,-61,0,62,-70
-14,-2102,93,69,84,38,-29,21,29,-41
-70,-1910,60,54,20,33,-9,9,-1,-33
-245,-1498,7,-37,-102,-64,-84,-68,-17,5
-70,-890,35,-98,-178,-167,-198,-174,-90,-32
100,-487,24,-133,-182,-232,-277,-264,-220,-183
304,-231,-9,-120,-115,-242,-299,-306,-327,-222
583,-300,13,0,29,-126,-238,-297,-394,-68
537,-693,-27,66,94,-30,-125,-241,-426,91
67,-966,-175,-30,-3,-62,-72,-197,-497,254
-252,-1169,-296,-150,-95,-42,15,-133,-486,357
-35,-1296,-276,-150,-94,58,129,-78,-403,436
-105,-1321,-108,-109,-142,41,165,6,-173,461
-319,-1187,30,-88,-162,-116,-33,-44,56,282
-243,-889,-39,-144,-164,-214,-221,-60,316,23
-393,-559,-91,-113,-113,-177,-211,97,576,-67
-633,-117,127,160,195,155,100,408,754,-206
-658,537,334,396,472,454,422,601,668,-277
-235,1776,360,381,403,351,304,360,334,-256
-17,3207,309,330,322,266,161,156,88,-176
-55,4104,220,269,291,233,118,92,-37,-268
130,4429,66,128,102,84,109,171,61,-152
303,4328,-30,7,-100,-100,51,210,182,43
58,3933,-75,-79,-127,-186,-128,16,49,55
-201,3104,-55,-14,0,-88,-186,-197,-185,-44
-182,2075,20,208,228,95,-117,-235,-219,-62
193,1117,-31,163,270,125,-50,-120,-70,87
403,294,-150,-77,-3,-71,-36,13,151,349
268,-510,-111,-135,-135,-131,-46,-4,150,328
122,-1116,-110,-173,-71,-12,9,-3,62,116
136,-1372,-69,-184,-31,55,38,39,79,115
296,-1292,78,-102,-116,-35,-34,-24,15,171
368,-1188,180,22,-172,-104,-103,-121,-46,221
370,-1139,200,85,-194,-102,-93,-133,-61,149
379,-973,135,9,-153,-46,-33,-84,-50,84
109,-723,47,-81,-122,-23,25,-33,-43,15
-483,-413,-26,-118,-134,-48,25,-55,-138,-219
-675,-153,-87,-120,-114,2,48,-76,-230,-371
-178,78,-152,-196,-196,-5,145,66,-149,-196
21,-77,-156,-179,-157,21,148,112,-166,-142
-140,-758,-109,-18,12,169,142,115,-162,-245
-170,-1667,-98,-18,-10,187,188,203,-29,-196
-69,-1315,-28,-2,-4,45,35,51,-50,-46
45,762,56,74,61,-96,-157,-96,-75,36
16,830,0,23,57,-106,-144,-76,109,46
27,-32,-57,-26,22,-79,-100,-30,190,54
94,-852,-54,-30,-11,-69,-114,-55,74,99
246,-1253,-73,-87,-98,-113,-124,-56,23,228
407,-1011,-59,-73,-93,-143,-152,-84,19,291
337,-562,18,35,27,-57,-142,-113,15,220
171,-219,12,72,96,22,-57,-23,77,130
82,26,-63,17,71,71,80,124,176,119
-32,646,-82,10,30,52,94,148,231,132
-303,2910,-118,-14,22,96,113,81,75,-63
-379,6919,-247,-141,-100,54,119,77,-42,-120
-252,8516,-70,-62,-74,-102,-121,-80,-147,-90
-172,7884,101,71,73,-14,-148,-162,-209,-198
-96,6819,65,-3,23,46,18,-26,-108,-201
-250,5559,68,-14,-38,13,104,74,-40,-227
-460,4368,40,-20,-59,-34,66,51,-79,-207
-333,3420,46,33,15,-6,30,21,-126,-144
58,2709,92,78,80,19,28,51,-62,-6
274,2189,122,93,102,27,33,98,9,142
135,1799,117,87,135,66,72,153,0,86
-70,1785,64,23,62,9,23,60,-99,-47
-98,1988,6,-40,-42,-87,-83,-119,-198,-132
14,2291,-11,-60,-83,-114,-151,-201,-216,-65
278,2705,43,-17,-79,-102,-128,-207,-178,89
235,3178,43,-4,-73,-49,-24,-104,-58,169
-224,3572,-44,-24,-28,69,123,65,62,166
-352,4041,-120,-62,-85,-15,75,131,178,271
-59,4298,-116,-49,-114,-153,-74,76,260,375
74,4269,-58,-9,-71,-114,-98,21,236,339
117,3993,-52,-36,-79,-91,-93,34,204,290
231,3346,-52,22,27,-8,-89,-17,77,198
108,2849,-32,68,110,67,-16,-11,46,101
-103,2375,56,86,142,132,56,31,12,-147
-176,2339,91,90,121,113,61,8,-87,-386
-142,2049,132,138,151,99,54,-24,-130,-379
24,1437,109,152,123,71,36,-2,-73,-170
524,1207,-1,47,-6,-14,-31,-28,-38,7
880,1124,39,-33,-78,-47,-78,-36,-32,111
658,909,-14,-87,-111,-39,-66,-21,-10,173
100,555,-142,-181,-191,-76,-28,42,12,169
-486,243,-192,-111,-103,24,74,84,-37,-64
-526,543,-124,44,70,170,109,14,-124,-199
-282,946,-27,60,104,227,129,44,-30,-13
-97,817,58,46,89,161,52,13,-16,126
231,510,12,-40,-45,-47,-132,-82,-79,192
470,230,-129,-191,-219,-220,-256,-162,-111,305
319,-351,-180,-231,-259,-283,-264,-154,-74,396
43,-1276,-194,-200,-214,-252,-203,-106,-34,315
-36,-2013,-149,-120,-137,-141,-104,-76,-70,29
-221,-2690,37,55,40,29,48,-27,-70,-217
-652,-3318,131,160,162,144,130,29,-48,-383
-467,-3446,53,84,81,77,70,-9,-119,-512
-171,-3334,104,105,104,117,162,82,-83,-414
-341,-3256,223,229,272,265,319,223,115,-333
-250,-2545,238,265,333,271,224,103,86,-312
117,-1558,187,184,232,144,115,3,6,-247
442,-801,-59,-72,-48,-83,48,78,120,-22
142,-43,-142,8,84,-75,-67,-60,-56,-163
-323,839,3,171,295,61,-122,-175,-186,-256
-361,1761,-33,16,178,100,-31,-30,-33,13
-116,2382,-81,-133,-9,59,9,52,64,273
7,2512,-11,-94,-145,11,6,37,85,342
23,2535,69,60,-125,-11,8,37,69,214
12,2162,85,221,-7,31,8,30,48,85
56,1668,57,91,-25,66,79,150,165,73
203,1484,32,-71,-96,-20,109,218,280,193
391,1204,18,-128,-157,-115,47,160,287,367
395,930,4,-95,-106,-64,-2,14,134,361
228,622,-101,-87,-50,-7,-54,-131,-44,301
470,624,-151,-79,-78,-87,-156,-268,-254,24
660,528,-11,-40,-58,-86,-143,-290,-365,-114
-63,138,13,-16,-24,-33,-40,-178,-324,-241
-707,47,115,92,87,44,-24,-156,-319,-436
-758,269,99,70,38,6,-77,-142,-296,-465
-550,827,-175,-182,-224,-146,-121,-69,-125,-108
-89,2058,-214,-298,-343,-203,-95,25,144,276
431,2738,-176,-301,-376,-184,-3,226,494,492
689,2543,-215,-418,-552,-239,174,493,679,537
394,1869,-220,-390,-529,-140,380,654,594,285
-92,928,35,53,21,170,267,299,161,-126
-405,120,113,302,410,323,11,-110,-206,-391
-177,-438,3,144,283,136,-44,15,32,-116
-173,-1312,61,212,408,273,96,60,91,-72
-419,-2179,94,293,516,374,134,-75,-142,-373
-396,-2812,37,210,380,166,-13,-198,-266,-421
-376,-3213,135,218,331,133,-31,-179,-279,-350
-320,-3236,188,187,258,104,-24,-145,-265,-314
-113,-2945,146,107,146,29,-86,-133,-238,-194
27,-2525,114,62,104,8,-108,-99,-172,-62
85,-2175,90,32,73,-26,-100,-99,-51,48
169,-1834,24,-16,9,-81,-124,-86,99,185
354,-1329,-16,-75,-51,-102,-137,-78,145,294
560,-736,-49,-136,-96,-121,-139,-100,100,258
445,-249,-89,-186,-154,-113,-121,-104,68,193
132,-301,-80,-192,-169,-109,-105,-106,23,126
-64,-675,-106,-130,-98,-84,-81,-66,67,44
-157,-1240,-117,4,52,-24,-29,4,142,8
-215,-1833,-68,122,146,51,72,74,88,-154
-146,-2232,-24,222,130,74,95,58,-21,-230
-68,-2524,8,260,121,64,49,-9,-74,-162
-1,-2639,95,232,161,94,69,5,-45,-95
-58,-2545,239,124,96,100,105,55,22,-75
-103,-2385,265,6,-45,48,71,62,24,-109
-6,-2022,131,-165,-171,-34,-1,8,-25,-93
19,-1578,7,-244,-181,-69,-40,-4,-13,-12
1,-961,-8,-171,-155,-70,-39,4,6,2
-1,224,13,-31,-113,-68,-58,-25,-61,-68
16,1535,-31,90,-11,-39,-70,-83,-137,-79
150,2274,-112,128,62,-11,-79,-102,-96,52
406,2839,-70,30,55,-8,-78,-82,-26,219
559,3183,-63,-111,-44,-68,-145,-132,-22,296
298,3295,-65,-159,-178,-131,-194,-160,-44,275
1,3024,-117,-259,-297,-125,-107,-59,26,258
367,2245,-104,-296,-339,-143,-61,14,115,319
508,1233,-32,-264,-333,-131,2,79,150,355
-300,335,-33,-256,-252,-7,154,230,201,284
-769,-317,-109,-243,-165,29,206,380,288,160
-360,-67,-4,-125,-53,63,193,396,241,77
-243,831,110,2,54,123,159,288,95,-87
-253,1030,160,181,189,112,26,86,-29,-169
107,1463,175,216,149,23,-47,2,-16,-31
246,1806,165,153,92,53,45,-1,16,24
140,1848,92,76,94,122,88,-26,25,184
22,2000,-39,46,102,78,-16,-107,-10,269
-117,2266,-21,85,175,40,-103,-181,-130,116
-259,2522,17,125,217,58,-96,-199,-217,-36
-273,2573,-76,30,160,116,-16,-151,-259,-188
-147,2265,-268,-219,-61,100,112,-41,-187,-200
33,1675,-211,-271,-226,27,135,7,-155,-221
261,870,28,1,-92,37,76,-59,-180,-216
371,-181,237,233,-18,57,86,8,-53,-153
137,-1231,304,273,4,32,38,62,57,-56
-102,-2061,110,71,-49,-49,-37,31,74,112
-10,-2540,-65,-115,-154,-135,-69,14,91,267
95,-2954,-84,-102,-85,-87,-61,-39,42,185
124,-3422,-92,-69,-19,-67,-66,-50,44,267
-6,-3805,-9,37,73,-44,-79,-28,75,231
22,-3961,87,138,203,37,-41,-53,5,-36
47,-4001,104,183,263,145,100,40,24,-37
-3,-3820,58,93,140,103,110,51,1,-56
11,-3393,107,87,100,71,64,-19,-51,-90
-349,-3052,139,111,74,58,11,-75,-128,-223
-458,-2715,86,81,27,33,-24,-81,-156,-292
-333,-2529,-8,3,-14,-15,-54,-90,-175,-154
-175,-2695,-50,-103,-111,-118,-141,-142,-181,-14
309,-3190,-18,-95,-118,-130,-148,-154,-123,122
836,-3965,59,-28,-56,-81,-72,-116,-133,150
689,-4844,132,59,40,6,30,5,-5,114
160,-5119,142,86,89,56,94,91,84,102
-213,-4930,102,62,67,55,91,47,-81,30
-141,-4653,25,6,13,15,50,-30,-222,15
-58,-4378,-51,-51,-30,-16,38,-15,-167,123
-351,-4107,-120,-100,-94,-62,1,36,-11,119
-330,-3831,-206,-161,-192,-149,-39,69,164,105
-173,-3460,-165,-180,-231,-189,-60,95,415,121
-163,-2748,-112,-100,-143,-127,-57,158,567,-13
-154,-1651,-39,13,9,-3,-19,216,448,-85
-124,-385,16,106,119,107,27,217,218,-192
-69,811,64,129,164,164,44,175,71,-220
40,1692,80,102,116,130,25,140,27,-158
68,2440,3,36,47,82,22,100,39,-71
-31,4757,-56,0,0,29,-6,18,11,3
-154,5627,-78,-31,-33,-18,-67,-90,-59,16
-131,4854,-87,-55,-23,-38,-106,-168,-177,-60
64,4161,-84,-67,-43,-67,-118,-197,-213,19
268,3610,-42,-61,-67,-100,-96,-179,-185,181
355,3171,-21,-60,-82,-115,-72,-157,-160,284
216,2705,-31,-41,-46,-60,0,-83,-149,286
-64,2636,-76,-37,-26,-35,36,-16,-60,266
-113,3101,-27,1,4,-17,47,20,7,207
-6,3391,-44,-17,-25,-22,40,45,61,144
24,3772,-113,-110,-152,-87,16,98,154,180
-192,4200,-66,-104,-160,-46,123,211,252,75
-333,4502,-14,-66,-103,58,208,316,337,-84
-105,5012,-98,-131,-157,42,193,279,231,-75
35,5482,-146,-125,-144,0,128,187,88,-69
-157,5597,-1,56,111,186,127,43,-94,-240
-180,5463,29,121,137,158,96,33,-61,-213
58,5016,46,125,95,-23,-92,-20,-10,17
289,4238,133,174,138,-83,-244,-167,-103,130
311,3188,83,134,100,-116,-234,-196,-111,161
295,2081,-80,46,54,-71,-161,-165,-61,253
432,1084,-83,82,103,12,-64,-98,34,469
480,274,167,190,150,40,6,-49,77,571
192,-565,116,151,152,79,80,16,47,377
114,-1094,21,81,124,69,73,21,-28,127
-116,-1480,71,110,116,54,49,-4,-68,-167
-462,-1762,82,86,37,-26,-62,-113,-169,-518
-361,-1816,95,70,15,-19,-86,-112,-124,-485
-134,-1874,126,71,24,-9,-44,-104,-40,-206
-119,-1920,90,44,23,1,-13,-109,-21,-4
-79,-1886,-17,-36,24,62,-10,-90,-50,77
16,-2023,-106,-89,12,71,-19,-107,-144,1
-6,-2444,-120,-75,7,58,-15,-85,-149,-101
-103,-3033,-98,-60,9,74,2,-50,-129,-215
-322,-3997,-86,-87,-18,79,35,-30,-142,-378
-281,-5277,-128,-159,-106,8,43,18,2,-241
-58,-6446,-148,-183,-129,14,66,57,112,-46
119,-6571,-172,-121,-50,125,57,-14,19,85
265,-6206,-77,-66,-14,148,-10,-105,-80,178
347,-5836,31,-46,7,117,20,-88,-83,169
349,-5485,35,-47,26,68,61,-56,-35,270
110,-5161,38,-4,68,45,69,-51,-17,160
-117,-4853,18,39,99,31,26,-46,-19,-80
-205,-4560,-24,-33,11,-75,-49,-12,46,-72
-173,-4275,-120,-182,-145,-276,-198,-78,42,8
72,-4008,-170,-277,-230,-448,-309,-167,11,142
318,-3756,-184,-316,-240,-447,-270,-121,82,264
442,-3518,-130,-280,-148,-284,-84,29,170,251
79,-3289,-95,-235,-41,-30,140,168,247,268
-652,-3105,-5,-68,91,210,320,265,214,66
-664,-2923,60,133,119,156,297,287,123,-322
-45,-2753,90,308,-2,-84,78,115,10,-461
38,-2606,109,375,7,-99,13,7,-56,-410
128,-2462,41,246,27,-97,-22,-37,-54,-134
259,-2321,-41,24,-139,-169,-46,-15,34,115
317,-2179,38,-35,-169,-121,-46,-5,47,148
340,-2054,331,101,-81,-74,-41,-13,-18,68
321,-1928,544,193,-56,-72,-49,-29,-21,39
383,-1804,475,205,-17,-7,-40,-34,-6,54
322,-1667,267,120,80,64,7,-21,0,10
-8,-1559,82,50,100,78,22,-77,-37,-48
-213,-1475,23,137,113,150,98,-23,-5,-77
-324,-1350,39,162,106,160,117,19,-7,-104
-405,-1147,66,46,-17,57,50,-25,-90,-182
-325,-982,86,-62,-146,-58,-22,-85,-166,-230
-114,-631,71,-110,-145,-85,-65,-79,-213,-178
127,3453,16,-130,-125,-92,-51,3,-126,-44
242,10255,-21,-102,-111,-59,-15,59,-19,32
238,10262,-17,-57,-71,-57,-78,-6,-59,25
174,8094,12,3,34,-29,-80,-24,-129,-29
221,5813,22,29,81,26,-21,18,-33,31
545,5066,-41,-22,-8,-22,-20,39,164,432
559,4704,-25,41,19,36,76,172,380,716
179,3487,-24,105,80,104,172,257,436,637
-191,2813,-143,-25,-26,-15,63,126,268,310
-385,2248,-87,33,65,54,96,103,101,-79
-366,1537,-15,137,196,163,181,166,17,-452
-382,1052,-47,93,184,151,142,116,-77,-602
-619,1022,-25,70,151,117,79,24,-160,-603
-952,1255,2,71,144,110,43,-35,-186,-663
-762,1672,-4,15,68,50,-9,-61,-144,-530
-170,2113,-34,-55,-8,-9,-48,-61,-82,-199
20,2098,-97,-123,-58,-28,-43,-47,-45,-4
45,1800,-63,-128,-62,-33,-20,-78,-85,50
14,1329,-50,-101,-38,-25,3,-100,-199,-2
-8,626,-38,-48,33,47,41,-67,-258,-110
7,27,-39,-27,39,60,64,-22,-230,-170
50,-137,-54,-70,-51,-30,24,-23,-182,-107
27,-322,-73,-38,-15,-27,-5,-41,-155,-73
30,-531,-86,-21,54,35,13,-53,-152,19
93,-692,-83,-101,-49,-60,-6,-21,-33,175
123,-1021,-27,-59,-68,-139,-103,-43,27,170
129,-2286,38,46,51,-58,-118,-54,48,109
184,-2362,-85,-24,-2,-20,-40,35,131,153
142,-1710,-249,-147,-112,-51,-10,98,230,206
-12,-972,-134,-116,-92,-71,-49,40,226,151
63,-222,-36,-52,-23,-44,-67,-17,149,22
133,483,-117,-112,-104,-66,-73,-36,11,-56
87,922,-201,-171,-198,-163,-175,-94,-46,-104
118,997,-73,-116,-142,-218,-308,-205,-8,-168
539,773,30,-46,-74,-187,-256,-177,25,-111
718,296,51,55,41,-36,-128,-46,124,-9
197,-475,7,94,111,43,-68,24,171,63
-290,-1240,-68,68,71,15,-60,-6,111,102
-288,-1344,-61,52,38,-6,-30,16,77,117
-146,-1427,84,101,84,38,42,96,113,160
-187,-1569,229,256,278,211,209,215,188,75
-278,52,191,251,316,297,342,289,207,-27
-274,1059,-50,39,105,132,241,201,167,8
-111,1102,-166,-85,-74,-61,48,86,130,147
31,1521,-72,-72,-127,-117,-2,63,129,252
-130,1970,-69,-36,-53,-2,145,163,155,179
12,2125,-155,-30,-9,79,206,150,53,32
538,2579,-36,-31,-61,-17,54,5,-80,79
545,2893,95,55,23,-26,-63,-119,-131,103
191,2916,133,114,90,22,-58,-152,-180,-77
105,2729,34,39,18,-19,-85,-180,-185,-77
-134,2192,-23,28,46,52,-40,-154,-101,66
-362,1408,13,25,92,120,6,-119,-109,-24
-198,685,23,34,125,83,-25,-152,-214,-139
-106,40,49,73,196,109,12,-117,-238,-196
-99,-554,-19,14,107,51,-15,-68,-173,-180
82,-1014,-114,-105,-66,-101,-104,-67,-124,-47
183,-1258,-137,-186,-209,-103,-23,-14,-160,-51
254,-1323,-153,-204,-333,-78,128,69,-104,-58
32,-1360,-21,2,-263,-74,98,89,-17,-148
-362,-1423,186,228,-72,38,99,118,112,-266
-230,-1161,100,91,-105,89,187,287,346,-72
112,-579,-44,-114,-168,43,185,364,517,269
138,361,-55,-95,-66,-10,-1,101,208,132
-193,933,105,102,126,-13,-194,-203,-175,-133
-158,1086,140,125,114,15,-110,-107,-153,-31
-97,708,78,68,77,45,-11,11,-64,7
-173,436,20,56,112,-12,-90,-89,-75,-65
-79,64,-8,51,84,-106,-227,-186,-131,-124
-30,-637,27,64,58,-101,-164,-86,-25,-236
-16,-1377,84,138,171,42,-5,3,-27,-336
55,-2139,111,159,237,178,112,69,-47,-288
-77,-2975,171,137,189,190,164,169,17,-108
-123,-3672,138,13,10,72,150,150,43,81
336,-3874,16,-187,-201,-99,54,24,12,245
455,-4044,25,-124,-143,-75,60,-9,18,204
56,-4087,76,-17,-57,-36,76,38,54,90
-183,-3715,30,-10,-50,-21,87,41,32,10
-126,-2989,-35,-72,-81,12,119,33,5,16
8,-1585,-103,-165,-172,-80,47,-25,-78,87
15,-495,-46,-48,-55,-101,-97,-216,-292,-19
-41,91,-54,77,116,-12,-160,-296,-334,-118
5,416,-83,-3,68,-17,-151,-150,-46,5
59,363,-104,-56,48,39,-41,31,119,28
13,84,-32,21,102,122,48,150,145,-124
-46,21,52,67,120,125,82,210,198,-104
-33,94,18,26,49,36,19,181,164,50
81,-211,-52,-18,-13,-54,-76,121,105,135
88,-985,0,15,21,-34,-47,120,59,88
83,-1582,74,55,55,0,-4,111,66,20
52,-2056,72,39,37,9,4,68,68,-36
-142,-2682,6,-31,-34,-1,9,28,37,-68
-254,-2634,-55,-128,-131,-48,10,-17,29,-60
-162,-2410,-72,-164,-171,-79,-4,-61,0,-12
0,-2003,-46,-121,-132,-90,-52,-82,-23,34
108,-1041,-8,-45,-54,-73,-64,-83,-27,2
6,-38,2,-2,-10,-39,-69,-122,-21,6
122,761,-71,-82,-95,-72,-93,-125,-67,86
479,2246,-20,-37,-44,-114,-179,-178,-93,131
469,2928,77,97,125,-15,-117,-130,-6,159
247,2409,125,162,196,104,40,-10,12,81
28,2021,71,129,186,141,114,38,1,-40
-318,1190,0,84,137,131,156,76,65,-86
-550,270,-14,50,60,79,135,79,23,-214
-396,-425,-39,7,1,25,64,43,8,-215
-94,-1048,-130,-45,-40,-18,29,47,78,16
138,-1501,-227,-117,-88,-45,3,67,123,227
208,-1113,-131,-120,-116,-79,-31,54,104,246
189,-294,-66,-90,-109,-120,-103,-74,-22,98
276,-194,-18,-43,-57,-90,-151,-203,-171,-32
577,85,24,-35,-61,-104,-153,-206,-166,96
648,463,34,-59,-119,-135,-133,-128,-77,167
120,850,0,-36,-81,-55,-47,-66,-43,165
-396,1345,-42,-19,-22,46,78,33,30,184
-422,1888,36,70,83,168,147,70,23,-32
-253,2299,-27,-32,-35,138,160,88,-36,-136
-399,2286,-219,-164,-191,-24,87,34,-85,-129
-688,1953,-48,22,28,-5,-48,-179,-233,-263
-313,1476,106,122,130,35,-65,-156,-190,-202
207,915,14,23,6,-20,-26,-8,-68,53
393,365,-20,31,23,-27,-47,-64,-152,83
360,-256,19,68,70,-13,-76,-175,-279,-25
221,-952,58,89,108,42,7,-87,-168,-93
-5,-1478,47,68,95,117,170,130,113,-31
-325,-1723,15,43,48,122,235,276,273,-45
-419,-1567,57,102,99,94,136,162,164,-134
-260,-1063,61,81,85,47,10,7,21,-29
48,-490,-112,-32,-40,-47,-43,-39,11,93
120,36,-164,-46,-70,-82,-98,-86,-81,-47
53,604,-23,-10,-26,-41,-111,-69,-45,-169
3,1246,28,19,21,-5,-56,7,73,-173
-44,1777,40,11,0,-6,-33,68,136,-73
-33,1946,18,-42,-78,-77,-50,102,202,110
59,1727,-33,-100,-144,-112,-57,139,254,282
-12,1347,-24,-60,-76,-48,-22,121,199,153
-42,786,2,-7,9,33,14,17,15,-141
-19,0,-41,-45,-9,88,91,65,-9,-105
-14,-826,-65,-84,-49,81,127,149,26,40
12,-1513,28,7,18,48,50,71,-60,32
37,-1955,89,52,47,2,-13,-12,-151,-28
12,-2185,2,-1,15,-11,-18,-35,-166,-48
-22,-1987,-105,-131,-108,-114,-58,-29,-74,48
-97,-1596,-203,-209,-164,-201,-101,-32,5,88
22,-1020,-194,-142,-85,-184,-102,-64,-27,2
278,-243,-100,-47,-48,-178,-108,-95,-61,9
411,560,-60,-55,-107,-249,-186,-124,23,135
413,1455,-58,-50,-46,-223,-249,-135,93,235
393,2280,8,67,92,-46,-219,-135,56,221
386,2801,-7,6,-27,15,-58,70,195,399
292,3058,39,-19,-147,-7,10,142,171,285
171,3135,223,150,36,126,112,128,26,-169
-111,2916,244,212,204,241,187,124,-56,-368
-699,2290,161,186,246,258,203,155,14,-291
-1016,1626,164,223,275,293,240,200,60,-377
-551,1324,179,167,182,212,191,124,14,-300
-83,1122,136,114,118,107,101,-9,-76,-216
104,903,48,23,12,-10,8,-84,-137,-171
109,715,14,-62,-82,-102,-57,-66,-35,55
237,661,24,-180,-224,-191,-70,-7,102,346
390,742,-40,-264,-341,-235,-38,61,187,383
113,955,-74,-164,-208,-52,40,56,48,71
-329,1217,-206,-56,-30,135,140,102,-115,-224
-478,1502,-261,31,57,190,167,182,-129,-392
-470,1945,-125,185,174,242,134,104,-258,-434
-233,2513,-9,168,171,230,82,-73,-427,-284
74,2849,-10,48,93,177,69,-214,-534,-90
274,2761,-3,-62,-46,11,-34,-315,-488,-1
208,2296,69,-78,-87,-122,-182,-344,-326,-107
61,1600,250,93,97,-125,-319,-413,-311,-261
-94,705,226,60,49,-130,-268,-203,0,-69
-126,-115,20,-75,-56,-120,-153,56,336,113
202,-685,14,-61,-30,-78,-106,148,473,224
198,-1324,101,24,48,14,3,351,722,330
-395,-2010,148,137,166,134,145,462,624,51
-415,-2202,115,108,116,55,80,323,336,-126
-94,-2200,123,75,92,19,35,175,169,-9
-7,-2112,100,69,109,55,26,68,82,-91
48,-1802,38,0,24,-5,-21,-7,31,-161
81,-1498,28,-29,10,16,2,-10,-15,-184
43,-1100,-24,-59,0,50,26,18,-45,-168
9,-657,-57,-48,-9,18,43,47,-55,-119
42,-334,2,40,11,-15,18,19,-26,-52
-25,-270,-44,50,-16,-64,-26,-29,0,7
-9,-373,-54,10,-48,-117,-119,-106,-69,-13
226,-648,46,22,-45,-123,-167,-161,-125,22
388,-1283,80,72,-23,-88,-124,-130,-106,145
429,-2141,67,135,49,6,22,14,31,267
127,-3043,-2,177,147,128,191,194,159,277
-344,-3578,-10,123,117,98,160,137,65,100
-380,-3683,20,1,38,10,43,-6,-75,-39
-114,-3704,17,-83,22,4,51,-25,-110,-30
69,-3257,-36,-184,-59,-67,-3,-68,-153,13
210,-2134,-64,-202,-126,-122,-69,-76,-55,219
123,-1115,-94,-176,-139,-114,-40,-27,74,294
47,-269,-191,-262,-251,-130,-22,11,104,254
96,400,-293,-397,-448,-235,-49,-1,93,223
312,1177,-215,-328,-428,-284,-98,-77,53,158
506,1887,-1,-68,-160,-194,-173,-200,-26,209
410,2319,27,-10,-67,-99,-112,-85,55,254
-133,2324,-15,-1,11,104,112,96,88,55
-487,2810,-76,-5,27,136,144,134,117,25
-259,4265,-206,-117,-139,-37,25,154,228,230
224,4391,-209,-201,-211,-101,8,159,236,245
181,3518,-106,-56,-19,-7,-27,-39,-11,-113
46,2715,56,157,215,146,-39,-252,-284,-418
285,2145,-44,-30,-44,35,17,-113,-150,-180
427,1652,-56,-117,-220,-135,-78,-49,-3,143
289,1192,88,135,27,-152,-236,-207,-141,94
78,865,175,306,349,29,-191,-233,-177,-12
-190,582,51,254,471,249,40,-1,5,81
-705,318,-20,340,616,447,214,104,28,-150
-782,332,31,268,562,479,298,184,56,-328
-626,501,53,148,303,377,284,222,120,-218
-478,974,92,106,0,128,67,16,-64,-210
-73,1292,145,79,-154,-33,-44,-100,-164,-234
2,1093,148,33,-126,0,22,-11,-112,-170
-291,502,121,-7,-68,79,108,48,-89,-174
-494,-124,121,-10,7,166,199,62,-151,-224
-233,-720,117,-3,18,157,180,-7,-184,-112
262,-1478,97,2,-4,62,43,-144,-208,112
617,-2228,-27,-134,-161,-107,-17,-77,-61,465
596,-2705,-94,-271,-353,-279,-39,2,127,658
196,-3227,60,-73,-173,-193,-77,-187,-41,291
11,-3679,158,135,85,-40,-92,-237,-108,83
5,-3565,124,138,125,-52,-97,-79,36,60
23,-3142,13,6,30,-61,-65,118,202,47
-79,-2564,-18,-15,45,4,-54,178,217,-147
-163,-1368,5,11,74,60,-31,143,96,-261
-34,-163,24,83,104,91,13,101,-8,-320
333,635,32,252,185,113,51,44,-3,-219
584,1434,24,345,253,105,18,-28,-14,-72
142,3282,-78,236,170,33,-71,-101,-92,-121
-362,6338,-254,39,13,-38,-109,-90,-63,-141
-526,6661,-406,-140,-132,-96,-114,-21,20,-85
-359,6107,-326,-175,-190,-108,-110,13,84,24
-220,5576,-128,-134,-217,-93,-49,73,140,158
-37,4689,-115,-143,-216,-96,-37,68,123,266
252,3528,-209,-186,-274,-195,-101,37,171,488
322,2631,-181,-142,-227,-236,-184,-35,118,571
509,2028,15,-177,-209,-228,-165,-3,154,642
246,1771,229,-146,-110,-92,-21,70,140,279
-196,1593,352,33,116,142,180,149,50,-271
-234,1368,306,184,267,304,287,132,-115,-651
-43,1422,264,213,262,273,216,-9,-278,-617
-125,1899,272,203,174,177,124,-99,-307,-396
-365,2319,161,134,114,128,104,-101,-259,-194
-354,2976,79,65,81,93,66,-131,-294,-157
-145,4843,20,-1,2,36,13,-157,-358,-98
-15,6789,-44,-60,-106,-32,8,-66,-294,52
124,6583,-85,-150,-230,-90,48,72,-194,172
319,4764,-203,-352,-436,-151,134,249,-10,300
508,2677,-294,-491,-595,-264,156,377,200,366
236,2134,-138,-236,-340,-237,24,192,160,167
-359,2605,0,76,48,1,-27,-13,135,-128
-364,2418,-12,55,58,70,62,96,322,-110
29,1834,36,46,20,-72,-79,54,302,-58
182,1725,3,33,1,-200,-270,-105,235,23
271,1491,-83,-3,-26,-195,-300,-177,159,167
441,1325,-35,25,-3,-135,-260,-197,103,352
581,1227,105,96,87,-12,-148,-127,169,562
810,1192,164,147,161,54,-60,-66,228,622
750,1333,78,130,216,48,-12,-83,148,399
-193,1291,-40,99,336,144,96,-22,39,-87
-1352,1315,-217,42,370,224,152,37,-56,-638
-1307,1420,-169,-15,279,228,181,72,-98,-756
-606,1332,18,-20,141,203,223,120,-20,-415
-320,953,88,27,32,160,208,116,8,-208
-173,317,125,105,-62,98,171,87,-3,-98
-56,-570,117,89,-131,22,118,39,-22,-81
4,-1595,89,49,-65,28,101,7,-68,-111
38,-2571,53,4,-53,-37,39,-22,-39,69
145,-3375,-66,-124,-171,-183,-58,-21,49,298
145,-4100,-66,-124,-149,-170,-60,-45,-12,200
93,-4606,-41,-82,-71,-58,50,-22,-42,66
220,-4610,37,-82,-79,-43,95,-15,-57,89
297,-4349,115,-28,-63,-63,29,-91,-162,108
181,-4007,108,40,35,24,25,-125,-197,22
125,-3441,48,29,61,50,43,-64,-114,143
12,-2790,-10,34,110,110,51,-85,-218,45
-121,-2036,-21,76,137,95,16,-84,-170,-109
-136,-1193,4,108,101,7,-85,-55,21,-74
-25,-504,46,91,53,9,-99,-29,113,-27
32,-219,62,47,21,12,-58,-19,62,-95
71,-180,2,-29,-28,-17,-51,-35,-2,-38
218,-322,-124,-164,-150,-99,-48,3,34,151
148,-810,-86,-102,-49,-69,-55,-42,-24,84
67,-1420,-63,-8,84,-10,-59,-114,-70,0
150,-1964,-116,-77,-35,-59,-32,-83,-33,37
43,-2451,-105,-94,-122,-135,-1,-3,23,17
-281,-3410,-200,-196,-255,-204,36,76,92,-178
-271,-6014,-195,-260,-345,-139,128,152,96,-265
-20,-6862,-19,-59,-154,35,157,96,35,-80
183,-6299,23,172,58,126,124,27,31,118
102,-5776,57,258,193,192,143,58,76,116
-51,-5114,167,292,367,279,128,50,46,9
-164,-4364,147,240,395,285,46,12,-22,11
3,-3489,66,111,272,251,5,-29,-40,89
141,-2684,82,78,170,165,-73,-98,-16,25
-49,-2215,194,103,106,100,-110,-122,-70,-122
-89,-2091,146,23,15,22,-129,-133,-160,-91
-14,-2383,-6,-110,-107,-72,-153,-122,-71,93
162,-2976,-141,-228,-215,-155,-175,-64,70,317
509,-3304,-119,-231,-253,-188,-162,-5,36,258
842,-3465,-97,-246,-290,-185,-146,-1,-129,36
912,-3674,-128,-295,-324,-202,-123,-24,-173,28
486,-3887,-38,-175,-191,-158,-105,-22,-66,55
80,-3838,-11,-148,-180,-140,1,92,127,123
-147,-3620,-65,-106,-149,-56,94,115,151,196
-482,-3364,-78,-88,-85,46,144,94,68,131
-258,-2920,-74,-53,-21,103,136,81,0,127
4,-2194,14,122,127,31,-24,-60,-124,76
-185,-1459,79,247,267,16,-106,-118,-102,130
-573,-728,80,238,285,28,-60,2,144,251
-757,95,202,247,284,59,-4,63,249,223
-725,800,209,232,259,120,49,43,78,126
-515,1257,191,208,231,115,35,-42,-200,-15
-67,1755,173,141,149,32,-41,-155,-386,-247
518,2212,87,26,-17,-138,-179,-244,-355,-251
343,1632,50,2,-35,-129,-150,-178,-225,-265
-290,745,46,61,53,5,10,-23,-54,-378
-350,167,-64,64,61,107,146,151,199,-286
-87,-139,-195,-83,-53,184,264,357,418,-80
-19,-304,-170,-189,-164,149,289,442,593,34
-27,-151,-2,-30,-23,95,144,223,392,-88
-75,330,9,153,236,103,-15,-43,95,-159
-156,938,-152,119,179,-67,-99,-63,79,8
-69,1680,-231,138,37,-229,-140,-50,101,137
231,2532,-163,62,-135,-304,-167,-69,56,170
317,3299,-98,-8,-218,-326,-232,-187,-81,49
241,4085,-203,-213,-349,-231,-121,-100,-20,57
238,4864,-228,-290,-367,-119,-53,-19,75,109
167,5366,-55,-93,-249,-99,-116,-49,95,125
-228,5375,105,46,-76,-13,-147,-57,46,-31
-430,5111,248,84,142,152,-46,-34,-67,-280
-184,4715,365,99,213,206,27,-23,-88,-235
-82,4067,296,80,177,151,15,-52,-124,-205
186,3472,106,-43,3,-20,-82,-82,-120,-16
435,2919,29,-131,-140,-152,-136,-34,-21,208
378,2330,31,-90,-123,-137,-120,68,77,193
432,1962,-79,-161,-198,-173,-127,124,137,227
480,1915,-73,-236,-296,-247,-117,93,69,146
365,1772,93,-29,-57,-89,-63,-53,-176,14
-69,1626,153,124,136,87,19,-111,-255,-45
-211,1607,61,24,66,100,47,-55,-165,-146
-20,1823,8,-51,-18,74,73,22,-68,-141
32,1933,34,-4,16,150,121,36,-62,-171
-76,2134,19,68,88,253,134,-39,-130,-252
-114,2420,-86,27,36,226,72,-96,-144,-227
-185,2387,-95,-46,-28,212,144,23,4,-88
-188,2083,-148,-164,-119,245,255,164,124,60
-63,1604,-152,-175,-111,193,234,141,73,145
-78,922,-2,61,216,259,128,-76,-172,23
-76,198,-66,186,439,377,122,-149,-252,-32
9,-276,-9,169,380,295,123,-121,-202,-77
-223,-647,38,68,218,54,-20,-155,-171,-255
-219,-1036,-35,-22,98,-101,-108,-82,-52,-222
43,-1304,-59,-63,36,-149,-102,19,111,96
395,-1053,-88,-98,-20,-194,-106,36,245,478
669,-359,-81,-105,-80,-241,-140,18,333,645
536,212,-132,-83,-107,-256,-132,14,297,566
202,605,-150,4,-48,-201,-61,90,288,412
84,1078,-127,59,-3,-146,41,108,157,74
-129,1527,-141,-44,-158,-191,110,121,75,-69
-225,1994,-165,-258,-477,-413,47,127,70,-95
-233,2184,-183,-365,-602,-482,-25,123,97,10
-404,1906,-221,-263,-407,-175,67,151,121,0
-322,1523,-70,-145,-259,32,228,231,112,43
-197,1060,241,115,3,80,99,13,-183,-90
-243,431,412,369,361,225,-25,-245,-485,-320
-69,-349,440,456,543,255,-121,-337,-536,-316
92,-1214,361,336,361,-9,-167,-220,-334,-122
-192,-2136,246,208,266,35,-62,-125,-193,-236
-293,-2811,129,113,214,97,-25,-99,-54,-309
-175,-3103,71,36,112,33,-34,-40,86,-162
-255,-3763,99,59,114,84,39,99,204,-73
-281,-4516,141,131,154,124,85,189,229,-133
-61,-4087,84,95,120,47,39,140,121,-130
164,-3323,-44,5,84,-79,-94,29,-37,-49
408,-2456,-197,-54,94,-195,-236,-64,-106,117
742,-1587,-371,-193,43,-249,-255,-88,-32,367
647,-957,-348,-302,-131,-261,-177,-46,62,423
310,-577,-363,-417,-421,-301,-32,143,303,510
-258,-696,-295,-272,-444,-210,97,243,433,321
-637,-959,-10,140,-170,-70,-42,-34,101,-224
261,-1142,256,290,-198,-153,-220,-190,-27,-109
887,-1668,317,216,-134,-55,-105,-54,128,271
214,-2524,229,204,127,192,118,123,238,234
-782,-3224,182,217,270,359,272,183,109,-300
-743,-3495,200,110,182,334,321,183,-103,-593
-118,-3566,217,6,11,214,310,205,-43,-220
165,-3404,161,-34,0,105,151,101,-24,129
152,-3107,75,9,155,129,12,-56,-73,197
148,-2701,-155,-25,156,121,-5,-35,-16,294
173,-2132,-256,-81,94,70,-33,-67,-34,336
5,-1659,-62,-50,96,69,12,-88,-137,14
-196,-1165,177,9,135,150,139,-23,-216,-466
-238,-539,312,18,84,118,117,-37,-257,-674
-149,50,323,-43,3,42,38,-66,-224,-532
-31,333,128,-102,-63,-7,-18,-95,-157,-196
-10,308,-44,-159,-134,-88,-113,-161,-117,-23
70,-38,-150,-185,-169,-109,-114,-116,-49,-32
86,-1176,-153,-191,-158,-2,29,13,48,-2
-56,-2822,-111,-189,-144,73,149,100,18,6
-223,-3591,-46,-111,-85,70,95,25,-149,-69
-178,-3750,-68,-144,-124,-13,19,-38,-251,-32
171,-3684,-131,-199,-181,-112,-39,-72,-341,-68
538,-3509,-72,-100,-156,-194,-149,-141,-379,-204
586,-3300,-16,-36,-156,-296,-287,-124,-206,-150
245,-3115,-89,-66,-139,-264,-259,43,147,-14
-63,-2749,-79,-37,-26,-105,-104,239,530,160
105,-1950,-59,-54,-33,-84,-107,170,503,265
339,-1169,-4,-18,-55,-85,-141,60,382,243
36,-834,90,80,16,20,-24,88,292,33
-629,-565,100,182,148,209,198,194,225,-263
-1101,-55,123,324,338,382,316,227,143,-449
-831,241,62,316,362,390,294,199,109,-407
-357,391,-1,192,230,287,236,151,74,-236
-95,324,-1,123,155,192,128,18,-22,-102
88,-9,87,77,91,127,52,-43,-40,28
60,-453,149,33,-2,11,-9,-78,-75,43
12,-747,155,20,-21,-71,-55,-117,-88,2
117,-774,112,-37,-107,-119,-57,-107,-101,0
147,-717,70,-61,-156,-145,-46,-61,-52,53
128,-478,19,-76,-155,-160,-41,-16,13,189
149,0,-20,-68,-130,-163,-117,-112,-71,202
185,567,-20,-65,-107,-140,-114,-114,-126,162
232,1324,40,6,-16,-54,-87,-129,-253,56
165,2148,122,97,90,76,-34,-182,-416,-136
-80,2969,71,87,122,119,-13,-214,-473,-317
61,3870,-92,-31,37,3,-116,-239,-277,-256
414,4772,-144,-67,0,-81,-245,-233,16,32
407,5211,-156,-86,-26,-90,-213,-53,336,267
97,5356,-168,-87,-38,-49,-104,71,446,285
-208,5359,-164,-96,-60,-25,-53,73,346,208
-496,4995,-53,19,11,57,38,107,189,-80
-650,4463,-38,82,-11,78,130,154,68,-458
-125,4256,-73,3,-120,-3,87,129,57,-394
245,4052,49,-13,-97,-49,34,80,67,-80
298,3800,154,95,87,-8,33,0,-41,2
193,3635,166,230,339,187,133,8,-59,-61
-117,3579,42,191,417,329,250,76,5,-128
-321,3786,-145,1,160,193,216,130,76,-70
-245,4162,-279,-175,-220,-91,66,105,85,-7
-14,4656,-87,-66,-296,-211,-99,-44,-52,44
-8,5124,195,300,-68,-156,-191,-156,-150,114
-107,5683,243,293,-29,-73,-104,-39,-106,150
-268,6242,113,69,-69,0,-10,45,-80,128
-65,6722,16,-66,-75,7,-46,-9,-64,141
376,6750,75,-18,2,10,-63,-40,-50,58
500,6376,70,5,64,51,-44,-51,-74,-129
611,5823,-40,-83,-9,-11,-68,-80,-70,-105
416,4906,-90,-111,-57,-17,20,27,55,-36
-139,3867,-135,-152,-121,21,165,176,212,-1
-69,3136,-280,-396,-385,-56,269,251,252,174
296,2531,-346,-554,-625,-270,162,196,200,399
186,1841,25,-51,-174,-239,-196,-248,-228,170
74,1316,169,268,234,29,-169,-288,-335,1
283,1173,-59,-53,-41,-21,-42,12,-17,318
244,1130,-162,-180,-121,-42,-35,60,119,396
-84,1205,-127,-57,56,31,-67,-21,143,224
-206,1455,-24,93,231,79,-134,-87,170,154
-538,1676,-24,154,283,91,-63,2,133,-100
-636,2105,101,242,326,132,47,67,47,-452
-369,2609,217,236,305,191,118,82,-48,-597
-167,2748,184,179,210,163,122,41,-103,-518
-233,2400,99,118,161,193,156,50,-68,-436
-88,1937,9,22,94,222,217,99,6,-269
118,1364,14,-36,16,186,224,69,-5,-175
113,565,19,-35,-23,75,127,-22,-70,-217
-152,-303,45,51,41,-2,1,-143,-160,-321
-196,-1091,-23,36,10,-39,23,-53,-42,-194
-43,-1728,-87,16,-5,-94,-3,49,54,-25
-48,-2242,-99,59,62,-98,-71,3,4,28
-75,-2575,-157,25,76,-78,-48,25,18,82
47,-2671,-210,-90,-29,-116,-34,56,22,180
330,-2552,-78,-89,-38,-105,-81,-16,-33,234
328,-2351,72,-38,-8,-98,-148,-99,-83,219
-38,-2095,100,-69,-52,-136,-163,-156,-124,119
-112,-1716,216,-33,-54,-121,-111,-117,-67,115
-6,-1192,115,-70,-101,-116,-48,9,113,251
13,-591,-27,-80,-105,-78,-16,6,-5,182
80,-266,-1,-15,-35,6,22,-22,-153,153
117,-266,65,84,56,54,-1,-82,-200,94
47,-360,59,87,59,15,-86,-69,-57,14
20,-590,-53,-63,-102,-77,-82,99,341,75
163,-859,-108,-156,-230,-160,-82,138,514,270
394,-1115,-102,-176,-278,-243,-112,68,370,318
299,-1512,-35,-110,-232,-269,-123,15,186,44
-192,-1992,-21,-52,-182,-252,-46,102,194,-120
-666,-2257,-25,73,-22,-168,-59,32,65,-297
-634,-2126,-3,176,145,-13,-84,-131,-166,-386
-203,-1886,-5,186,241,152,43,-87,-150,-281
197,-1525,0,155,262,210,122,-47,-93,-159
201,-1047,21,143,269,246,125,-52,-46,-11
-58,-658,-62,75,223,255,133,4,8,174
-51,-40,-28,-16,17,45,2,-9,-27,266
356,717,113,-83,-156,-102,-96,12,-84,271
489,1108,94,-93,-128,-88,-87,13,-202,118
387,980,-34,-67,-92,-47,-12,34,-154,98
272,652,-212,-119,-138,-21,83,116,61,318
-79,181,-149,-140,-138,39,162,125,111,214
-300,-414,34,-32,-76,42,70,-32,5,-154
-224,-1023,78,18,-83,-61,-102,-122,39,-257
75,-1544,-17,-65,-221,-131,-60,-16,34,-49
383,-1982,-10,-67,-266,-156,-45,-27,-56,132
594,-2484,105,93,-50,-75,-101,-114,-103,199
477,-2987,207,239,175,20,-67,-122,-91,177
-6,-3723,277,329,381,234,107,-46,-112,82
-601,-4049,148,214,371,337,221,52,-51,15
-774,-3621,-50,41,222,271,183,137,81,-31
-617,-3009,26,46,185,254,178,208,107,-162
-595,-2312,140,107,225,304,228,234,-4,-389
-466,-1458,72,67,161,284,215,209,-55,-403
-220,-490,14,-7,48,127,83,94,-22,-315
15,202,-69,-100,-61,-14,-9,47,149,-92
79,474,-53,-79,-70,-37,-17,37,256,75
-16,572,12,35,-29,-77,-84,-88,57,-56
-187,397,-47,67,-22,-114,-115,-177,-154,-192
-124,107,-126,108,-63,-153,-103,-164,-169,-193
316,-55,-126,67,-152,-191,-75,-100,-75,-80
735,-191,-146,-172,-317,-262,-75,-32,74,142
770,-407,-225,-477,-500,-248,35,117,256,367
714,-586,-193,-393,-369,-102,158,232,340,508
391,-495,55,205,206,77,-15,-32,91,336
79,-254,147,453,484,172,-71,-111,-33,131
18,163,16,284,400,78,-133,-143,-57,164
-90,690,-104,33,240,-20,-184,-182,-108,176
-159,1340,-89,-71,102,-46,-190,-202,-177,32
-171,2114,-140,-146,-64,-70,-169,-180,-195,15
10,2814,-99,-165,-129,-8,-54,-91,-190,70
-112,3293,248,83,12,127,95,38,-125,-62
-334,3552,489,265,91,179,166,93,-86,-332
-83,3683,354,133,-44,81,105,87,-8,-237
277,3780,65,-126,-217,-63,-19,10,46,62
29,3365,-176,-300,-294,-143,-88,-38,43,38
-200,2684,-135,-173,-174,-77,-55,21,73,-146
-334,1969,-64,37,-12,36,87,154,108,-217
-349,1267,-32,124,115,200,294,283,83,-264
-343,758,85,158,205,213,225,150,-42,-235
-255,479,93,123,171,148,91,-2,-123,-133
-136,372,-91,-36,-21,43,68,1,-102,-37
9,462,-131,-163,-161,-92,-28,-66,-141,48
114,687,41,-205,-233,-157,-21,-42,-88,194
125,965,45,-189,-219,-103,51,1,-18,250
236,1373,-44,-144,-183,-110,0,-25,-88,253
363,1920,-42,-103,-172,-174,-76,-98,-208,129
299,2316,-45,-4,-48,-89,-111,-203,-330,-117
402,2424,-131,-120,-116,-8,32,-20,-100,-119
463,2209,-214,-308,-304,-23,193,267,231,52
195,1824,-12,-79,-97,-36,11,109,207,-66
-309,1109,211,216,159,-61,-220,-155,30,-360
-541,77,175,230,212,0,-165,-118,0,-367
-191,-882,131,209,284,103,-16,19,112,-44
70,-1749,184,303,460,202,31,6,105,155
-125,-2640,111,222,401,200,91,48,117,118
-296,-3394,-44,40,249,142,106,120,152,96
-321,-4037,-131,-52,159,128,149,168,130,-23
-187,-4702,-162,-72,71,117,180,174,85,-159
70,-4618,-203,-101,-77,5,110,146,95,-99
73,-4169,-81,-48,-173,-93,89,112,127,28
67,-3701,131,12,-162,-109,67,66,92,62
28,-3189,66,-29,-91,-33,107,76,81,123
-57,-2512,-62,-95,-84,0,163,105,61,50
-75,-1960,-60,-23,1,-3,63,-13,-48,-61
-59,-1699,15,117,168,59,-19,-117,-124,-116
119,-1532,53,126,161,37,-86,-137,-100,-1
360,-1492,14,10,36,-17,-108,-104,-29,229
559,-1671,47,-9,41,-57,-173,-132,-20,361
569,-1992,62,37,83,-14,-128,-99,-10,389
173,-2298,-53,-19,-60,-73,-67,-52,-31,251
-128,-2535,-111,5,-26,-95,-106,-131,-155,31
-272,-2672,-34,118,137,3,-106,-180,-200,-133
-120,-2511,-29,51,31,-68,-103,-114,-76,-49
146,-2117,2,-10,-59,-124,-73,-52,0,138
72,-1716,33,11,-69,-119,-63,-59,40,128
-109,-1178,77,38,-47,-70,-40,-29,47,57
-60,-538,104,53,5,-5,-7,-5,18,-1
-16,67,89,21,-41,-24,-35,-21,-2,14
-66,769,-6,-62,-146,-124,-102,-77,-47,68
-270,1457,-83,-46,-118,-103,-57,-42,-54,-3
-395,1970,-57,-11,-25,-45,-1,55,8,2
-293,2237,-1,8,2,-88,-50,70,19,0
-106,2236,-53,-31,-22,-117,-65,86,-22,-87
192,1972,-150,-108,4,-1,64,159,13,-21
190,1354,-221,-154,17,103,134,124,68,80
111,655,-213,-132,-51,88,106,2,26,65
35,44,-85,10,-30,138,167,-16,-79,77
153,-383,98,116,-10,157,195,23,-159,84
469,-653,160,68,-46,52,114,79,-118,52
261,-903,250,90,63,47,49,116,-192,-221
-161,-1047,188,64,126,86,44,154,-197,-325
-78,-917,71,-16,43,3,-16,60,-104,-81
53,-569,28,-34,-20,-73,-96,-58,0,47
-95,-222,-23,-50,-45,-95,-127,-114,88,56
-85,59,-68,-59,-27,-47,-94,-132,24,73
-48,427,-63,-46,-27,5,-67,-83,-33,68
-122,807,-66,-54,-48,-6,-64,-21,34,59
-86,992,-7,-19,-11,8,-49,-13,142,73
9,865,38,3,-6,20,-13,19,208,148
65,536,24,-17,-24,35,42,78,212,98
133,-9,-39,-44,-70,42,84,90,111,-65
103,-732,-145,-66,-115,0,54,111,215,-123
6,-1369,-90,-48,-98,-55,-17,90,375,-157
4,-1838,-85,-62,-85,-96,-67,49,365,-112
77,-2233,-92,-98,-66,-26,-29,42,293,64
112,-2565,-89,-118,-35,38,-4,11,177,205
108,-2654,-3,0,100,90,0,-43,68,157
207,-2523,-51,-102,-18,45,108,126,210,205
298,-2158,-42,-158,-103,-4,116,157,170,138
267,-1643,27,-110,-66,0,23,85,48,100
420,-1122,135,0,21,38,-2,19,-96,-20
174,-705,291,293,286,167,-2,-94,-254,-373
-227,-253,234,296,359,223,0,-99,-242,-481
-408,123,0,72,221,200,47,22,-95,-217
-392,348,-88,90,150,88,-40,-29,-88,-36
-320,314,-50,197,121,75,-98,-155,-165,-65
-181,31,12,187,-32,-52,-123,-165,-197,-107
-225,-761,158,181,-84,-206,-189,-206,-265,-205
-431,-2139,122,55,-157,-183,-84,-83,-188,-156
-470,-2800,68,2,-143,-82,61,40,-77,-39
-349,-2987,39,10,-86,-45,82,38,-72,84
-173,-3061,-58,-116,-164,-82,119,113,89,270
9,-2889,-131,-215,-196,-68,128,150,228,381
199,-2347,-75,-139,-19,17,54,-7,71,232
461,-1622,-49,-111,-7,-34,-89,-173,-80,253
612,-833,-139,-198,-117,-87,-173,-206,-51,430
594,39,-197,-199,-136,-103,-184,-133,61,465
352,807,-79,-7,57,-29,-176,-129,5,348
-83,1483,6,98,186,115,-7,-5,-40,115
-399,2328,131,146,216,161,63,7,-129,-292
-670,3041,163,168,226,158,67,8,-103,-438
-744,3353,39,88,152,116,88,110,44,-367
-394,3442,21,52,107,43,35,71,74,-349
1,3259,47,79,167,93,13,-19,2,-239
4,2724,6,4,138,228,176,109,86,-61
-74,2202,-17,-64,34,272,275,186,103,-27
-214,1733,57,188,126,274,199,38,-60,-180
-284,1344,81,401,154,179,52,-42,-87,-299
-81,1103,-37,238,33,24,-46,-6,8,-193
138,1019,18,115,-20,-146,-177,-58,-39,-71
355,1086,46,82,-52,-277,-249,-115,-74,35
538,1229,-24,126,-15,-195,-162,-83,-35,161
426,1496,-79,150,14,-103,-62,-24,12,201
226,1783,30,166,99,-25,13,17,38,138
23,2134,172,175,223,76,78,61,85,62
35,2751,-104,-90,106,35,89,165,243,213
381,3415,-388,-460,-151,-88,58,181,288,375
475,3810,-265,-553,-262,-179,-32,43,143,243
218,3886,-110,-519,-278,-210,-103,-110,-59,108
-88,3644,17,-417,-275,-190,-131,-167,-160,102
-238,2989,123,-80,-50,-63,-156,-223,-225,33
-234,2290,152,65,-39,16,-70,-140,-194,7
-105,1729,135,19,-41,108,111,6,-91,73
-13,1111,130,20,106,150,144,20,-56,67
42,543,148,67,196,114,80,-39,-43,70
-115,138,130,71,191,103,46,-86,-82,-79
-246,68,71,2,86,79,49,-76,-137,-227
-159,160,34,-58,-61,-13,1,-59,-156,-177
113,406,119,20,-157,-146,-123,-93,-297,-146
401,851,198,127,-126,-124,-82,25,-347,-87
185,1124,214,166,-90,-49,45,203,-176,-12
-281,1544,52,75,-56,-14,45,159,-153,-26
-301,2204,-74,-4,-50,-18,-18,-60,-269,-74
-61,2697,-141,-88,-123,-34,-17,-113,-148,17
125,2818,-266,-296,-332,-69,66,90,414,224
250,2725,-275,-395,-491,-184,87,279,747,303
-168,1761,64,95,62,149,112,201,468,-40
-235,971,159,184,87,10,13,198,497,-2
-245,308,138,168,110,-21,-51,28,214,-141
-67,-183,42,79,91,25,-55,-72,24,-116
86,-612,-13,7,87,33,-63,-89,1,-30
189,-839,-94,-101,27,-33,-119,-160,-90,-106
400,-879,-150,-164,-79,-108,-162,-170,-156,70
507,-871,-88,-129,-80,-76,-104,-72,-67,378
443,-745,-67,-86,-59,-41,-70,-30,-4,541
120,-651,-51,-55,-55,-2,12,9,34,439
-251,-474,-34,-41,-36,46,57,-1,-38,1
-242,-9,-29,-23,-3,64,42,-22,-23,-292
-255,406,-13,-7,12,94,75,68,89,-311
-192,659,-113,-61,-26,38,58,86,107,-212
243,630,-139,-21,9,-20,-56,-18,45,-208
530,409,-43,19,32,-64,-105,-18,93,-85
280,218,-14,83,112,-49,-108,-29,48,106
20,-561,80,131,172,41,-42,-27,1,235
-204,-1433,97,121,162,125,88,62,55,241
-628,-2222,-19,24,64,135,170,145,30,-74
-675,-2911,-113,-61,-44,123,173,113,-68,-271
-279,-3245,20,24,24,109,82,0,-137,-235
-182,-3101,133,137,152,127,23,-71,-162,-258
-60,-2491,87,52,63,39,-9,-46,-87,-198
85,-2044,105,68,68,10,-61,-83,-98,-144
-14,-1703,145,153,164,97,-5,-36,-98,-135
39,-1196,163,155,153,82,1,3,-43,-65
225,-459,125,88,76,63,-8,-5,-3,-10
175,378,42,-15,-25,13,-34,-20,23,22
10,1076,-88,-140,-162,-78,-64,-47,-41,-30
74,1406,-255,-336,-407,-214,-73,-22,-58,-45
259,1341,-339,-478,-573,-269,31,141,168,36
269,988,-173,-327,-443,-252,14,134,247,15
-270,175,91,75,59,-55,-68,-66,-24,-278
-531,-693,23,122,250,32,-28,-59,-26,-140
-308,-1317,-83,24,211,26,-29,-51,15,73
-166,-1791,-89,-11,130,44,3,-23,-11,67
-267,-2210,-104,53,163,130,106,61,-18,45
-293,-2552,22,139,193,142,156,154,99,42
-184,-2643,179,165,108,101,141,188,205,-1
-152,-2627,222,213,100,117,133,131,91,-160
-17,-2380,150,163,100,107,92,34,-38,-259
191,-1946,81,101,54,34,-31,-55,-78,-176
255,-1862,-12,20,-66,-77,-89,-47,-1,49
265,-1815,-70,-13,-68,-76,-71,-61,-16,93
224,-1248,-61,26,48,79,18,-68,-84,0
149,-788,-73,19,110,272,178,18,-105,-30
0,-705,-34,-50,22,194,129,28,-79,0
-15,-832,36,-104,-87,-53,-76,-48,-51,97
45,-1082,91,-70,-60,-159,-175,-148,-73,104
64,-1641,57,-42,-25,-180,-183,-125,-42,152
131,-2232,-75,-52,-106,-239,-180,-44,45,311
165,-2591,-29,31,-71,-205,-174,-109,-49,187
230,-2920,16,106,92,-103,-129,-158,-136,-41
438,-3208,-20,48,93,-62,-104,-169,-155,30
473,-3238,-88,-100,51,-44,-67,-161,-170,132
292,-3012,-78,-170,20,-1,-25,-118,-117,103
-252,-2760,72,-92,-21,74,77,42,43,38
-823,-2380,333,206,110,237,237,199,139,-208
-468,-1490,329,332,81,189,163,92,-8,-439
-21,-571,192,185,-93,0,-23,-71,-127,-284
-128,181,42,71,-112,-76,-113,-181,-248,-259
-24,980,-143,16,-58,-42,-89,-186,-294,-295
58,1471,-183,-64,-74,-12,-18,-114,-217,-236
107,1704,-109,-129,-155,-33,14,-71,-138,-154
149,1646,-125,-232,-292,-86,72,53,17,27
214,1344,-326,-538,-642,-255,146,339,449,302
3,848,-333,-563,-705,-335,116,492,668,251
-425,324,130,85,-30,-104,-45,257,279,-176
-430,-67,350,432,363,64,-121,149,16,-284
-179,-372,152,282,297,80,-59,195,35,-97
-43,-658,0,180,307,161,18,106,-35,19
44,-800,58,197,332,220,93,-15,-102,38
95,-786,88,184,308,209,101,-89,-90,68
-36,-632,4,106,243,165,75,-140,-121,79
-70,-270,-83,10,139,85,21,-125,-139,155
130,38,-87,-74,-8,13,-8,-52,-94,274
258,-27,-59,-126,-106,-73,-75,-96,-94,315
216,264,-35,-125,-180,-155,-179,-216,-86,208
133,789,-26,-152,-269,-203,-201,-173,147,85
144,963,-11,-117,-205,-113,-81,55,422,80
48,817,11,-72,-96,7,59,219,448,5
24,520,-20,-95,-85,38,92,167,281,-64
36,-14,-124,-209,-216,32,127,141,195,-14
166,-479,-185,-359,-430,-112,182,301,260,71
237,-818,-42,-161,-279,-179,56,183,192,-60
-45,-1225,220,302,144,-69,-102,-104,-59,-356
-443,-1582,270,465,356,40,-163,-216,-166,-344
-331,-1661,58,225,203,61,-61,-47,-50,-3
-95,-1539,-58,89,114,5,-51,0,8,179
-57,-1324,-11,290,257,106,-35,-57,-56,145
37,-859,55,451,306,159,-30,-107,-120,118
103,-285,33,294,140,16,-144,-206,-220,80
366,403,0,26,-20,-85,-217,-232,-223,128
634,1410,-61,-166,-102,-129,-224,-172,-156,203
226,1998,-39,-121,20,16,-67,-22,-98,8
-545,1957,-12,-85,149,192,130,138,-17,-177
-851,2188,16,-156,93,207,192,183,46,-243
-555,2166,-43,-107,26,159,167,129,32,-263
-128,1895,-52,-42,-3,118,139,62,22,-162
54,1211,-72,-51,-50,73,121,85,80,50
-50,705,-86,-71,-77,20,102,138,172,147
-158,230,-23,26,60,134,222,198,194,-13
-105,-29,-6,33,68,127,266,176,85,-74
53,-131,-56,-103,-61,27,208,138,37,1
132,-58,19,-115,-71,-17,131,95,35,51
126,69,63,-30,6,-54,-17,-99,-108,74
188,272,-46,-19,44,-70,-95,-195,-165,230
281,694,-173,-26,24,-109,-178,-216,-153,434
258,1217,-110,-26,3,-132,-242,-250,-183,345
13,1753,-66,-63,-14,-127,-233,-273,-218,134
-46,2432,-109,-165,-119,-103,-207,-219,-187,52
170,2996,-93,-240,-229,-63,-97,-66,-14,58
289,3184,-72,-252,-333,-78,16,93,136,46
40,2875,55,-52,-211,21,109,170,99,-96
-363,2318,198,207,113,232,180,128,-31,-272
-104,1774,167,139,80,109,88,142,55,-87
74,1122,83,77,51,-72,-113,16,25,9
31,456,69,146,199,-7,-131,-69,-94,-9
-214,-292,28,191,265,36,-72,-83,-121,62
-351,-962,56,175,257,5,-106,-131,-200,30
-121,-1437,2,68,157,-9,-111,-109,-199,88
24,-1726,-26,37,121,-89,-160,-122,-158,123
167,-1869,63,70,134,-131,-185,-135,-136,41
-322,-2905,209,184,-117,-14,53,56,90,-146
-40,-2250,65,37,-159,-58,-25,-15,-17,-202
44,-2093,-5,-27,-149,-31,1,-17,-41,-217
2,-2206,-33,-52,-152,4,84,22,-1,-166
-90,-2493,-58,-36,-119,9,116,54,47,-112
-196,-2977,-109,-52,-101,-10,75,60,54,-100
-60,-3271,-325,-208,-254,-82,82,147,134,12
226,-3368,-468,-440,-505,-239,105,335,317,190
375,-3622,-300,-345,-372,-189,22,251,235,193
348,-3876,44,56,107,52,-76,-13,-1,73
235,-4028,136,193,248,158,-7,0,3,135
90,-3696,-26,142,286,190,43,-8,35,191
14,-3208,-43,47,256,102,-3,-92,33,207
5,-2428,-54,-16,212,-17,-128,-203,-49,138
-69,-1786,-83,-13,194,-27,-121,-172,-78,-3
-199,-1154,-41,6,137,29,-13,-46,-69,-157
-94,-258,33,-28,2,-29,-42,-58,-121,-144
-16,571,166,66,-45,-80,-73,-70,-141,-70
8,1010,260,157,-63,-66,-45,13,-154,-44
62,1003,207,83,-98,-89,-33,75,-154,45
80,632,153,-8,-162,-136,-18,60,-182,116
96,-570,114,-19,-106,-62,83,64,-140,105
56,-1746,93,27,34,66,203,119,59,107
-48,-2258,54,32,76,73,171,112,252,130
-49,-2649,-23,-40,2,-25,28,104,274,51
138,-2928,-61,-124,-120,-106,-18,146,323,130
362,-2991,-126,-225,-256,-151,7,219,419,359
199,-3023,-80,-122,-147,-84,-10,51,174,208
55,-2587,136,134,85,-38,-119,-205,-191,-147
165,-2046,74,48,-26,-113,-80,-77,-28,-41
277,-1371,-16,-33,-93,-112,-15,75,149,108
327,-685,33,50,40,6,40,78,91,39
163,73,83,134,149,56,-14,5,22,-43
-137,778,62,156,181,34,-78,-59,-26,-119
-159,1423,40,51,110,45,-19,-23,-2,-44
-83,1709,51,-58,-28,-16,-33,-14,25,102
-10,1660,-13,-91,-111,-115,-126,-75,4,147
56,1439,-76,-116,-138,-190,-209,-170,-61,210
-109,846,-51,-82,-79,-144,-140,-133,-35,353
-280,77,-26,-4,16,-17,5,18,139,487
-219,-807,-17,-26,9,39,110,132,211,340
-309,-1697,39,33,24,23,83,71,18,-83
-305,-2147,99,151,72,68,109,24,-203,-425
181,-2174,108,152,50,71,104,-17,-291,-431
427,-2064,148,159,32,34,72,-39,-227,-222
20,-1928,149,167,101,108,110,3,-169,-198
-207,-1438,-9,89,102,85,61,-16,-169,-147
-26,-797,-163,0,72,20,-45,-61,-90,-89
106,-205,-209,-103,37,42,-16,6,70,-114
21,443,-109,-80,14,46,57,73,147,-180
-102,1075,-30,0,14,45,62,66,100,-165
-230,1482,-35,-3,4,72,82,85,51,-228
-54,1685,-86,-56,-50,97,144,151,18,-246
92,1587,-175,-20,-76,90,173,127,-40,-113
-53,1231,-207,14,-65,-31,0,-62,-133,-3
-89,590,-66,63,51,-63,-126,-174,-173,-3
-117,-481,-108,-44,79,-51,-124,-129,-61,97
-97,-1534,-215,-191,59,-18,-60,-18,132,299
6,-1902,-110,-214,20,51,49,76,187,360
134,-2042,-58,-195,-49,68,69,59,85,271
324,-1859,-11,-120,-129,30,44,52,56,186
312,-1416,68,-68,-238,-79,-49,21,58,121
218,-824,88,-72,-228,-201,-232,-155,-104,78
20,-210,84,-29,-92,-154,-234,-175,-172,68
-196,324,132,68,66,66,-49,-38,-107,25
-71,909,137,117,182,187,63,22,-55,28
141,1655,75,73,136,166,91,72,-4,147
-121,2377,114,108,153,189,104,101,145,58
-166,3059,132,73,111,142,64,66,154,-116
205,3554,100,-32,-28,1,-22,-21,113,-142
275,3781,38,-74,-142,-111,-46,12,219,-29
180,3384,15,-91,-249,-220,-56,83,274,54
290,2924,36,-66,-234,-211,-38,70,147,70
344,2508,121,143,58,-53,-40,-89,-107,-62
291,2218,201,300,303,92,-40,-193,-205,-114
183,1922,78,197,241,100,23,-56,-35,66
-130,1619,-69,90,129,72,50,12,18,22
-392,1484,-62,67,66,14,12,-37,-74,-139
-474,1549,72,142,63,12,-7,-74,-128,-269
-479,1727,136,128,71,59,19,-66,-115,-416
-301,2062,44,69,81,89,35,16,-18,-230
-107,2415,-7,-17,73,79,30,91,44,12
43,2889,-9,-27,82,75,33,118,-15,48
154,3364,-113,110,85,81,50,125,-76,12
99,3608,-187,102,-33,72,63,89,-98,-49
-164,3408,-52,41,-96,6,2,-5,-137,-146
-390,2832,23,71,-22,-51,-65,-69,-130,-144
-303,1664,-131,-102,-107,-75,-40,-33,0,-76
-93,413,-248,-265,-214,-117,-31,-8,69,-30
-158,-442,-93,-242,-141,-132,-96,-77,0,-68
-118,-1113,-37,-178,-44,-87,-97,-84,-32,-5
117,-1720,-134,-254,-132,-66,44,51,103,219
314,-2326,-69,-304,-241,-78,119,145,218,402
277,-2755,38,-275,-224,-49,128,132,158,371
17,-3016,132,-117,-70,23,102,69,95,273
-129,-3004,100,-24,-45,-44,38,79,126,192
16,-2604,-53,-28,-26,-80,-69,-50,5,129
312,-2004,-157,-63,-34,-142,-194,-193,-56,206
291,-1544,-104,-37,82,-45,-166,-206,-101,42
86,-796,-37,47,234,142,-42,-119,-90,-233
-68,-176,94,137,309,231,-10,-76,-31,-227
-155,-357,116,171,284,230,25,-40,19,-203
-108,-260,78,124,218,217,71,3,6,-294
-16,-201,92,40,118,171,66,20,42,-298
-179,-496,106,124,152,135,35,-38,-2,-270
-250,-1018,163,223,123,96,32,-69,-80,-227
175,-1409,162,113,35,19,22,-4,-3,20
582,-1699,83,14,8,-63,-6,10,87,198
593,-1991,77,64,73,-47,-9,-44,9,175
2,-2333,32,120,127,17,-1,-110,-148,-62
-409,-2507,-24,69,28,38,116,45,-90,-140
-244,-2136,-70,-57,-151,-61,83,85,-39,-120
43,-1457,-121,-139,-231,-148,-16,57,-75,-52
2,-860,-124,-82,-95,-95,-42,55,-184,-26
-115,-279,-138,-78,-9,-30,-41,33,-206,-56
-86,450,-134,-110,1,11,-24,-3,-97,-42
16,1185,-59,-65,10,23,-31,-57,-118,-6
68,1604,31,-30,-16,5,-58,-133,-195,46
-18,1604,-7,13,-25,11,-28,-155,-198,78
-109,1416,75,92,1,72,15,-115,-172,61
-82,1198,124,52,-35,75,34,-31,-49,63
42,897,95,-18,-64,11,20,0,-11,-11
109,458,20,-96,-102,-59,-16,-43,-124,-105
132,66,-93,-167,-160,-101,-47,-105,-161,-65
328,-162,-152,-192,-224,-132,-54,-107,-47,100
574,-277,-133,-156,-228,-158,-50,8,230,202
281,-366,5,24,-58,-88,-72,89,429,36
-154,-297,126,155,84,-5,-19,152,496,-129
-465,-36,151,160,159,57,54,226,459,-187
-596,394,87,138,234,90,92,207,346,-106
-189,1007,13,93,215,78,97,151,275,67
16,1680,-34,45,171,60,26,39,119,65
30,2028,-52,-14,92,18,-30,-54,-34,-31
64,2107,-50,-68,-44,-10,2,-27,-70,-83
68,2217,-68,-93,-220,-108,-29,-27,-46,-140
-32,2071,11,-34,-350,-191,-42,19,66,-191
-90,1672,79,1,-369,-136,71,156,213,-81
-243,1044,119,92,-161,-18,109,112,126,-66
-258,410,169,230,94,55,36,-25,-49,-162
-105,-65,147,228,185,58,5,-44,-99,-146
-4,-439,2,59,94,34,101,54,3,40
114,-656,-161,-103,8,-3,109,65,56,247
176,-648,-199,-109,60,8,14,-23,-11,290
224,-477,-166,-59,102,39,-17,-16,-58,169
94,239,121,5,118,107,24,60,-104,-41
-15,712,190,-53,42,50,-22,18,-120,30
-309,1207,143,-62,-5,13,-44,-15,-115,20
-530,1865,113,25,27,32,-32,-47,-88,-204
-378,2495,77,80,78,86,4,-44,-144,-406
-178,2855,58,88,73,69,-19,-77,-219,-420
107,2924,-12,0,-21,-37,-95,-114,-213,-166
372,2798,-79,-109,-111,-109,-137,-134,-157,67
518,2298,-126,-174,-141,-98,-132,-112,3,244
526,1558,-170,-205,-143,-48,-32,23,218,366
398,883,-211,-177,-116,12,76,145,288,315
-95,199,-140,-51,-6,67,115,158,164,89
-311,-297,9,51,54,23,53,33,2,-74
-224,-564,30,87,66,9,34,-23,-75,-125
-179,-632,41,63,100,48,85,42,-3,-102
-144,-550,72,77,107,69,144,124,167,-70
-73,-246,134,228,134,67,88,67,169,-91
195,334,127,208,86,-8,-37,-66,57,-32
139,856,98,111,39,-36,-92,-128,-47,-103
-65,1391,43,10,18,-38,-91,-138,-104,-159
-126,2015,-43,-65,19,-10,-55,-101,-89,-41
-165,2571,-146,-105,-36,-30,-70,-114,-95,-20
-55,2828,-168,24,0,29,-24,-84,-63,-13
135,2796,-121,163,28,77,37,-51,-43,73
305,2546,-108,53,-48,33,48,4,-9,254
390,1910,-109,-99,-78,-48,21,8,65,391
385,1252,-163,-262,-197,-130,-60,-48,61,393
23,597,-282,-406,-282,-219,-113,-44,64,336
-232,-17,-271,-328,-132,-228,-123,-57,-3,132
-70,-387,-144,-115,93,-55,-93,-117,-103,-69
-165,-579,-24,91,249,196,79,-11,-5,-85
-493,-608,100,216,287,327,231,127,79,-145
-551,-450,150,241,270,288,180,59,-49,-283
-189,-314,139,164,112,129,15,-80,-185,-211
44,-176,217,165,34,65,-6,-115,-219,-160
-38,270,193,190,33,23,-11,-106,-179,-248
63,919,129,52,-48,-48,-4,-53,-111,-161
188,1492,90,-67,-61,-50,17,-24,-23,19
309,1805,78,-103,-77,-60,-1,-28,51,152
341,1778,51,-121,-97,-45,45,68,175,250
82,1426,58,-17,23,40,115,143,191,140
-239,887,-29,24,77,64,123,87,80,-25
-145,180,-42,-25,17,19,84,39,-11,2
43,-724,-2,4,37,43,98,12,-126,-65
54,-1283,-84,-1,33,37,104,-5,-212,-137
28,-1590,-87,-81,-65,-53,37,-41,-243,-35
98,-1824,-30,-112,-148,-111,56,20,-136,196
151,-1861,-43,-149,-205,-181,49,122,71,340
56,-1692,-44,-62,-66,-136,-41,141,216,222
57,-1397,1,91,103,-93,-83,167,294,153
-18,-979,10,160,209,-3,-20,115,241,-47
-93,-479,-48,89,197,63,1,8,87,-295
42,176,-170,-72,-6,-22,-59,-74,-4,-246
117,821,-219,-43,-35,-30,-91,-87,9,-152
93,1276,12,136,80,33,-79,-75,10,-134
-25,1395,204,224,130,81,-17,-34,27,-107
-179,1192,244,197,164,63,-61,-56,14,-86
-178,720,56,56,64,-5,-97,-59,23,-31
-31,-124,-147,-25,-55,0,-19,5,64,-21
-43,-796,-94,18,-92,11,37,49,55,-128
101,-1244,99,111,-145,-36,3,28,25,-104
201,-1631,154,136,-201,-72,15,25,24,100
87,-2077,141,42,-216,-83,57,25,36,337
75,-2485,227,-63,-250,-114,29,-31,-50,352
183,-2458,130,-168,-282,-137,11,-83,-178,291
166,-2147,33,-149,-193,-73,20,-132,-340,158
184,-1717,-85,-200,-169,-79,-6,-156,-343,97
138,-1206,-177,-229,-191,-164,-99,-127,-182,157
-250,-726,-97,-34,0,-93,-152,-133,-69,24
-424,-16,-86,8,48,-28,-122,-68,100,-83
-256,852,-76,-32,7,-6,-99,5,259,-192
-122,1526,-21,-18,32,41,-23,67,224,-272
-11,1899,-9,-11,58,39,-1,93,166,-153
-99,1882,-8,66,121,50,-4,180,255,-29
-110,1664,-34,137,165,94,21,229,256,-22
33,1223,19,82,109,78,38,163,140,58
25,652,55,18,65,100,82,133,109,130
-177,101,-1,-101,39,179,179,177,142,28
-237,-327,4,-132,-12,144,175,182,176,25
-307,-643,38,-37,-17,24,65,61,27,-73
-272,-781,58,66,84,32,49,0,-91,-239
-29,-676,155,151,146,33,35,-12,-70,-209
89,-556,168,149,115,6,32,0,-65,-208
226,-236,127,101,82,9,43,-26,-124,-185
296,140,62,83,51,-21,-17,-97,-163,6
106,487,-15,57,40,-24,-58,-137,-226,38
153,1085,-126,21,3,-55,-63,-138,-224,86
263,1470,-144,-24,-69,-115,-96,-147,-135,212
221,945,-100,-31,-75,-101,-57,-65,2,252
-37,317,-15,-11,-17,29,61,29,105,134
-286,168,27,8,59,152,141,53,61,-64
-269,-63,102,58,110,154,148,49,-31,-146
-94,-415,114,38,74,63,47,-2,-128,-91
56,-695,9,-30,-6,-23,-11,-41,-164,59
-39,-986,-31,-63,-65,-78,-42,-32,-122,40
-52,-1173,3,-70,-111,-106,-53,-14,-37,7
73,-1231,47,-44,-76,-95,-39,-53,-75,-35
119,-1127,0,-37,-27,-56,-25,-33,10,17
137,-862,-101,-106,-80,-34,14,76,137,161
125,-401,-138,-176,-172,-80,10,100,115,136
123,205,-106,-225,-283,-159,-29,33,31,84
205,696,-130,-282,-350,-191,-14,56,91,170
204,1202,-40,-109,-92,-24,-15,23,145,120
56,1784,45,65,145,220,118,103,195,-13
-109,2357,-30,35,103,135,124,143,185,-34
-453,2577,-173,39,136,59,34,34,6,-227
-339,2596,-300,66,126,81,14,-15,-91,-308
149,2478,-178,144,19,-90,-110,-49,-20,-34
325,1966,-16,164,14,-140,-161,-81,66,318
155,1262,104,161,139,-18,-133,-143,-42,346
-74,630,253,231,310,100,-65,-135,-151,140
-73,85,218,163,296,133,4,-54,-87,75
-72,-361,132,79,245,82,-13,-63,-95,-85
-4,-865,86,7,203,80,25,-41,-132,-333
232,-1326,66,-116,17,132,159,91,-5,-288
43,-1263,117,-76,-72,147,248,205,82,-215
-231,-1098,277,206,-35,104,200,161,61,-211
-358,-700,223,231,-105,90,188,146,31,-112
-252,-116,58,53,-161,44,174,155,67,17
-62,641,-28,-121,-229,-13,168,152,70,26
-22,1430,-61,-208,-257,-85,63,72,-7,-56
-129,2084,40,0,6,-76,-159,-173,-220,-157
-161,2382,69,93,123,-53,-227,-188,-191,-48
-47,2400,-20,-24,40,-6,-117,-60,-34,82
-60,2158,-3,-1,122,116,-44,-91,-114,63
57,1766,15,-27,76,61,-43,-162,-242,155
269,1420,-1,-117,-60,-72,-103,-221,-304,307
270,1114,-12,-124,-94,-102,-133,-284,-436,302
186,886,-82,-130,-97,-105,-181,-373,-560,242
204,737,-167,-168,-133,-166,-242,-392,-415,289
154,705,-279,-217,-178,-223,-294,-272,24,346
183,858,-249,-196,-141,-188,-251,-67,409,268
219,1063,-148,-84,-15,-64,-101,160,522,67
23,1306,-65,54,118,92,89,357,555,-162
-223,1636,34,170,211,175,196,427,513,-301
-419,2093,188,161,164,107,132,298,303,-269
-346,2721,183,156,76,-9,9,71,16,-266
-94,3230,60,199,52,-49,-39,-15,-58,-196
-69,3364,-17,157,62,8,10,53,-36,-140
-141,3104,-37,43,-9,12,66,144,2,-69
-81,2662,-123,-86,-141,-23,102,178,70,42
98,2019,-171,-143,-156,-13,142,110,71,101
287,1233,-58,-130,-123,-64,65,-10,62,173
341,506,118,-58,-8,-62,4,-74,68,214
259,-87,113,-3,95,35,63,-26,74,210
137,-494,51,-22,58,-13,26,-33,39,242
219,-653,8,-55,-18,-108,-47,-56,32,316
278,-602,-31,-73,-47,-86,-31,-4,40,264
142,-419,-97,-153,-109,-99,-30,-20,-30,55
11,-126,-64,-86,-41,-41,-26,-90,-137,-89
-315,318,-4,12,45,78,47,-42,-106,-233
-521,841,-29,-19,22,97,114,71,-41,-312
-265,1553,-84,-96,-49,31,124,120,68,-106
-75,2356,-61,-23,-79,-21,73,34,22,-15
-166,2950,-29,113,-36,-3,43,-25,-97,-58
-307,3179,25,178,52,47,-25,-122,-227,-107
-142,3203,125,183,47,21,-100,-202,-303,-28
174,3025,4,-16,-42,-14,-45,-122,-221,99
397,2540,-118,-51,91,136,41,-111,-211,110
505,1853,-100,-5,163,146,6,-134,-202,93
49,1006,-169,10,109,65,23,-1,19,94
-206,405,-76,56,103,3,7,84,183,80
-14,74,79,102,118,-14,-28,104,207,-17
117,-108,144,133,147,46,15,123,153,-138
-69,-154,106,103,105,60,38,130,112,-223
-81,-35,11,67,44,23,-12,65,24,-196
-11,255,-20,60,37,36,3,65,54,-41
-248,532,-20,121,102,107,78,83,57,-86
-307,932,-132,99,80,76,12,4,-2,-110
-89,1498,-138,56,45,32,-85,-62,-47,-70
27,1975,-76,39,35,24,-75,-42,-14,8
-93,2384,-39,-139,-148,-13,-48,-11,20,-13
-135,2147,54,-179,-182,-47,-56,-16,22,29
-97,1599,88,-110,-111,-58,-82,-24,29,101
5,899,69,-59,-38,-44,-71,-11,25,104
2,238,39,-49,-4,14,19,67,59,59
-14,-241,-26,-102,-62,-29,31,51,10,-4
-11,-669,-114,-168,-165,-129,-13,-19,-56,-3
-113,-1129,-123,-184,-208,-173,0,9,-25,24
-124,-1323,-49,-112,-135,-181,-24,29,-3,64
49,-1233,32,-112,-195,-237,-48,46,29,117
263,-1001,76,-124,-240,-257,-79,0,32,198
322,-699,66,-96,-192,-215,-46,-18,75,371
190,-380,105,72,117,-3,-50,-162,-82,210
-23,-36,58,192,437,229,-53,-247,-239,-202
151,483,-31,57,289,110,-87,-137,-114,-218
391,1003,-15,-19,152,4,-96,-84,-40,-92
562,1172,78,35,153,5,-91,-73,-21,80
356,880,187,149,164,81,-26,7,31,126
-135,481,252,233,120,71,-7,-9,-52,-51
-341,-36,260,252,10,-8,-40,-106,-197,-206
-255,-729,176,162,-89,-41,-40,-91,-130,-74
-125,-1294,46,-5,-192,-52,-28,-43,-52,53
93,-1657,-105,-111,-223,-108,-57,-37,29,46
278,-1969,-160,-197,-273,-140,-51,-49,45,127
46,-2314,-162,-243,-319,-64,93,49,121,195
-647,-2629,-42,-167,-180,63,206,179,185,-65
-1033,-2634,10,6,100,213,199,146,82,-361
-595,-2195,-72,27,172,166,98,29,-78,-331
-59,-1644,-65,-7,121,89,33,3,-115,-208
141,-1179,36,127,161,87,24,78,-6,-159
140,-607,94,239,211,93,2,135,18,-180
192,-11,38,178,196,94,-21,98,-45,-62
26,371,33,147,196,157,17,65,-78,-54
-41,516,39,127,180,200,67,90,-43,-95
40,520,92,123,128,166,60,48,-35,-46
39,322,214,65,9,86,33,20,21,-13
57,-85,215,-14,-30,15,-13,-1,47,23
151,-478,132,-45,-36,-19,-40,-32,85,141
254,-768,62,-60,-55,-31,-18,-41,73,170
494,-976,45,-71,-84,-38,26,-57,17,144
386,-1245,30,-62,-82,-58,13,-45,79,107
-20,-1341,-39,-94,-114,-82,-8,3,181,91
-182,-1147,-87,-112,-198,-106,10,56,202,42
-105,-839,-104,-28,-276,-168,3,91,237,114
-30,-374,-110,104,-187,-176,-39,57,221,171
102,215,-70,175,-95,-144,-132,-80,86,65
234,821,-100,76,-124,-165,-191,-137,8,88
189,1453,-292,-253,-298,-181,-58,15,154,275
112,2083,-293,-377,-410,-206,48,138,299,296
-41,2503,19,-132,-165,-87,-11,-2,83,-96
-151,2568,228,20,98,94,-6,-96,-174,-416
-120,2390,151,-50,154,166,54,-52,-151,-272
107,2039,18,-145,116,192,119,43,-22,23
379,1605,25,-129,90,163,42,16,3,200
379,1078,37,-71,63,19,-110,-106,17,228
270,551,44,-31,44,-22,-105,-91,18,204
237,140,32,16,62,-21,-56,26,111,180
160,-121,-35,24,109,-8,-33,89,121,68
-171,-105,-24,13,140,21,-44,-1,-87,-194
-613,-36,64,23,140,55,-37,-38,-174,-420
-507,235,16,-32,75,41,-27,3,-90,-404
-27,818,-58,-140,-49,8,38,88,66,-110
131,1369,-92,-203,-187,-58,69,160,143,59
-122,1849,-38,-62,-191,-118,-4,89,35,-20
-513,2326,38,128,-55,-65,-6,-4,-131,-274
-465,2840,-1,103,-22,-63,-41,-44,-160,-241
-317,3032,-67,50,21,-16,-51,-103,-157,-120
-193,2946,-73,49,71,60,-21,-65,-139,-96
108,2676,-60,43,69,75,-46,-23,-68,-19
214,1982,-15,99,105,129,16,32,33,34
15,1078,65,200,179,204,176,169,153,57
-239,369,67,226,198,171,192,187,177,92
-227,-66,-21,118,105,43,89,96,134,219
-76,-455,-122,-52,-51,-67,3,19,77,394
232,-664,-146,-78,-77,-106,-48,-80,-99,293
467,-649,-96,-14,16,-67,-32,-102,-182,123
205,-627,-9,75,136,52,44,-55,-155,-28
-181,-407,-56,31,119,42,8,-99,-206,-126
-221,59,-69,-16,90,1,-62,-137,-235,-207
-165,488,-9,17,97,35,-8,-47,-109,-263
-99,963,-14,85,84,35,-4,-9,-28,-269
-48,1437,73,65,8,47,38,25,30,-179
-99,1725,72,-10,-124,23,82,48,40,-103
85,1665,62,-34,-250,-50,90,87,90,47
230,1346,71,-27,-313,-94,78,100,106,204
226,778,28,-57,-245,-58,83,65,41,232
267,-18,28,-55,-159,-35,95,64,-22,232
270,-822,82,6,-40,18,82,27,-96,175
119,-1568,99,88,108,139,104,-29,-184,-24
-23,-2209,86,77,129,141,47,-76,-229,-153
-30,-2677,54,36,45,19,-63,-136,-211,-136
142,-2863,31,-31,-41,-79,-110,-129,-77,-65
198,-2860,41,-25,-45,-123,-146,-129,75,-11
175,-2761,-10,-44,-34,-126,-120,-65,199,103
262,-2425,-111,-95,-77,-97,-67,3,206,213
273,-1955,-154,-72,-65,-9,-21,29,94,215
-7,-1450,-182,36,73,45,-27,6,-24,84
-194,-842,-238,83,134,19,-29,53,-45,-27
-209,-314,-172,72,108,50,70,204,16,-153
-236,-46,-161,8,-14,30,120,264,19,-338
-181,-543,-37,98,-119,-21,117,207,48,-238
-72,-1175,192,171,-169,-104,-1,36,5,-186
-7,-1561,316,195,-67,-144,-199,-199,-99,-197
78,-2072,250,149,55,-113,-284,-321,-186,-94
282,-2544,100,-46,37,15,-127,-203,-119,47
144,-3022,0,-166,44,106,60,-20,54,105
-239,-3398,-44,-174,69,116,81,78,88,50
-248,-3483,-6,-120,89,105,72,149,16,-84
-96,-3284,67,-28,122,103,71,164,-24,-121
7,-2944,94,16,104,65,15,52,-118,-57
119,-2442,70,-9,25,-21,-96,-135,-258,38
73,-1915,19,-41,-35,-55,-121,-232,-310,42
-16,-1422,-33,-59,-56,-48,-86,-226,-240,64
-46,-677,-146,-173,-174,-98,-108,-232,-233,17
86,149,-269,-332,-353,-190,-129,-162,-143,52
7,654,-225,-271,-302,-117,-46,-58,-16,-5
-194,760,-75,-55,-81,0,10,47,105,-182
-211,651,138,181,177,88,3,50,192,-270
-207,353,231,248,245,160,148,150,300,-217
-217,-167,167,145,133,124,235,254,404,-138
-90,-684,128,103,118,112,181,180,305,-144
37,-1169,154,174,235,169,98,31,118,-109
170,-1687,52,26,50,5,79,126,234,149
18,-2311,-8,-52,-26,-24,90,171,302,195
-280,-2544,-5,19,74,51,92,131,236,120
-364,-2373,-11,58,89,25,43,85,118,95
-242,-1992,28,113,67,-1,55,48,-33,-94
-3,-1322,88,186,10,-90,-4,-45,-173,-172
238,-549,97,221,35,-104,-107,-170,-310,-121
235,148,86,176,49,-59,-128,-233,-358,-72
103,971,28,51,-34,-78,-130,-188,-287,-14
135,1755,-51,-45,-74,-116,-121,-128,-210,1
125,2230,-150,-47,-18,-56,-66,-78,-20,-8
117,2306,-145,-1,40,20,-35,-26,203,10
197,2161,-1,3,12,17,-53,32,264,121
243,1743,90,16,-6,13,-62,56,208,115
353,1139,68,-14,-58,-43,-55,76,174,104
469,583,76,93,-7,-34,-43,80,151,181
248,-19,82,200,79,24,-17,61,137,206
-157,-550,12,90,28,8,32,38,115,-32
-152,-797,-18,-52,-52,-57,17,18,84,-159
-74,-736,-9,-64,-43,-63,7,16,92,-33
-85,-430,-51,-47,-38,-67,-37,-61,-38,11
-11,-54,-37,-26,-29,-40,-62,-109,-92,102
66,370,7,4,24,49,9,-35,-27,184
0,820,5,-32,10,52,48,13,-1,70
-195,1355,49,-70,-56,12,46,1,-29,-204
-277,2020,-42,-217,-198,-92,8,14,58,-237
-76,2606,-211,-352,-272,-152,-36,-9,115,-10
27,2804,-212,-276,-177,-90,-9,-2,38,71
-7,2652,-127,-128,-28,-14,32,-10,-46,63
-141,2285,-109,57,214,131,76,-60,-155,-54
-229,1682,-196,86,309,194,117,-65,-200,-199
-30,1125,-227,-121,72,47,91,-2,-52,-77
75,606,-258,-202,-63,-5,98,77,87,33
145,148,-271,-175,-144,-46,74,102,94,46
52,-301,-63,-34,-136,-28,-1,69,74,109
-65,-593,41,117,-53,-14,-60,14,17,144
113,-486,36,152,-67,-32,-74,-35,-2,225
290,-252,-26,23,-141,-61,-78,-12,23,306
159,-50,-24,-147,-222,-77,-53,12,-19,101
118,218,129,-176,-163,-39,-26,22,-76,-129
-25,463,182,-1,75,105,30,7,-65,-175
-151,1052,-20,22,90,70,-2,-44,-125,-202
0,1878,18,57,41,-28,-105,-164,-243,-237
-71,2233,174,62,-46,-107,-117,-164,-192,-162
86,2141,9,-75,-210,-185,-61,-11,14,113
55,1764,-46,-17,-150,-147,-53,19,48,215
-312,1126,179,228,113,57,5,-3,-77,113
-496,356,224,333,257,236,119,29,-89,-23
-257,-273,137,206,184,159,58,0,-81,-126
178,-823,51,35,29,-13,-21,-25,-80,-190
152,-1513,31,5,14,-19,27,20,-65,-297
-4,-2080,27,26,49,-24,-24,-21,-47,-284
-174,-2369,80,96,168,29,-31,14,79,-185
-196,-2326,86,45,181,65,17,149,157,-162
52,-2124,141,121,206,126,49,133,46,-126
73,-1828,214,262,248,207,95,97,1,-118
-89,-1419,226,238,209,187,79,64,30,-91
-348,-1016,164,145,117,119,24,-16,15,-116
-351,-500,41,18,68,79,-7,-78,-25,-160
-145,-21,-16,-18,59,61,1,-82,-55,-133
-47,181,-24,22,38,52,34,-61,-83,-177
35,9,-28,17,0,-12,-1,-45,-88,-175
110,-557,-37,-35,-79,-93,-90,-72,-83,-70
98,-1859,-76,-109,-148,-124,-112,-65,-22,24
77,-2886,-92,-154,-166,-110,-45,20,75,145
5,-3538,-76,-118,-76,-39,43,106,101,137
-17,-4058,-95,-89,-78,17,92,219,133,102
5,-4409,-80,-128,-130,-36,61,271,177,134
52,-4605,-55,-146,-151,-140,-71,178,169,160
122,-4555,21,-47,-73,-115,-112,47,89,163
231,-4436,4,19,-1,-38,-42,28,112,164
370,-4098,-18,61,73,-18,-22,6,119,158
351,-3411,69,82,84,-61,-93,-109,-12,123
83,-2731,-37,-13,21,-60,-103,-157,-115,81
-33,-1942,-220,-144,-61,-12,-47,-84,-69,175
-54,-1039,-215,-270,-152,16,8,-35,-77,120
-107,-312,-155,-272,-179,-20,-14,-83,-145,-67
-5,99,-20,-118,-128,-31,-58,-121,-157,-59
123,269,12,-75,-152,-84,-60,-62,-38,69
77,237,-4,-57,-176,-157,-75,-38,-53,59
-6,-98,2,-36,-200,-171,-63,-74,-221,37
81,-549,-82,-163,-308,-179,17,-52,-251,256
19,-972,-59,-110,-179,-96,35,-121,-234,317
-216,-1348,49,70,145,98,77,-201,-358,93
-259,-1583,-57,-83,71,120,181,-94,-301,1
-174,-1610,-149,-181,-32,35,99,-68,-98,20
-5,-1410,-105,-91,7,4,-2,-17,261,18
116,-1102,-64,17,86,37,34,215,675,-64
111,-599,-42,167,268,146,98,338,704,-135
122,32,-58,152,300,156,93,244,521,-60
227,595,-7,161,323,174,47,157,377,12
108,1185,93,259,327,164,9,119,286,27
-276,1717,196,400,318,121,-10,58,175,-22
-526,2117,235,458,263,48,-64,-33,10,-162
-397,2251,99,275,151,-59,-150,-155,-160,-221
-110,2165,-56,59,88,-95,-150,-193,-212,-144
182,1758,-102,-56,62,-78,-102,-190,-190,-84
230,979,12,-75,22,-33,-32,-145,-147,-68
-37,91,122,-79,-17,42,98,-6,-93,-57
-230,-637,196,-83,-68,61,194,107,-53,-38
-104,-1072,273,-5,-102,50,169,65,-137,-9
125,-1433,226,-33,-164,17,113,17,-152,152
150,-1716,67,-140,-158,4,106,21,-150,288
120,-1775,24,-133,-86,35,88,2,-199,319
194,-1637,50,-75,-37,30,58,-25,-166,237
164,-1710,46,-39,8,52,81,34,-32,116
-58,-1894,15,-8,57,90,67,17,-148,94
-152,-1372,-65,-47,20,36,-43,-69,-222,135
-68,-594,-116,-71,-13,-21,-99,-82,-181,156
3,190,-130,-84,-20,-52,-117,-62,-54,160
-6,672,-115,-9,-14,-70,-125,36,254,147
7,726,34,136,7,-53,-119,110,404,57
15,563,144,129,24,-26,-63,125,390,-100
46,252,72,61,-3,-32,-1,153,391,-149
-81,-140,-137,-52,-69,-13,71,221,444,-140
-43,-326,-178,-104,-121,-51,28,112,218,-173
198,-402,70,-52,-66,-94,-59,-56,-133,-72
185,-582,14,-50,-67,-112,-58,-90,-272,70
110,-672,-112,-81,-107,-104,-37,-113,-301,163
127,-489,-42,-58,-24,-45,-32,-190,-389,202
134,-187,-6,-8,57,-19,-19,-194,-413,188
87,253,-6,16,60,-9,-9,-141,-348,87
-80,829,1,42,82,52,0,-128,-277,-24
-466,1335,7,74,125,97,7,-12,9,-117
-267,2061,0,47,76,80,34,99,302,-34
170,2910,13,39,2,31,19,96,430,103
83,3537,88,81,-24,9,-33,50,381,-27
-31,3874,107,28,-82,2,-25,45,377,-252
193,3957,48,-36,-44,40,15,-1,170,-209
41,3668,-11,-75,44,97,72,3,-17,-98
-204,3126,-86,-135,61,106,94,23,-36,-45
-254,2657,-125,-146,-6,26,34,-10,-97,-56
-144,2291,-68,-43,-27,-25,0,-54,-270,3
155,1984,27,71,-59,-82,-38,-46,-352,111
444,1730,57,92,-117,-117,-59,7,-272,242
455,1534,77,101,-76,-65,-27,-26,-190,258
176,1575,85,82,-66,-21,9,-57,-23,111
7,1932,-85,-146,-172,-91,-4,5,297,-26
48,2293,-238,-326,-266,-130,4,173,678,-60
163,2658,-233,-296,-252,-78,76,294,719,-57
45,2984,-150,-143,-112,-19,134,297,442,-6
-259,3448,-28,78,127,71,49,98,42,-125
-140,3972,79,247,325,168,-37,8,-131,-64
-64,4281,32,211,350,180,-32,82,-86,82
-114,4206,-33,101,269,146,-19,77,-58,91
-203,3817,1,33,158,84,-20,-14,-109,-53
-257,3257,-10,-25,83,11,-75,-145,-186,-211
-186,2596,50,6,43,0,-82,-139,-98,-132
-51,2005,73,24,-6,-24,-65,-85,30,45
166,1506,74,3,-85,-61,-72,-106,-5,213
349,1047,71,-22,-133,-78,-48,-63,-13,251
237,616,63,-45,-135,-71,-22,-19,36,200
-95,308,80,1,-103,-22,72,65,108,132
-305,142,79,73,-62,38,227,203,200,90
-416,155,28,91,-12,82,251,188,151,-98
-167,550,-77,101,55,32,102,-27,-65,-257
14,1003,-126,42,74,-54,-12,-118,-146,-132
179,1462,-145,-59,4,-110,-77,-117,-144,-63
-25,1827,-94,-10,119,-17,-79,-129,-198,-227
-295,2105,0,35,220,142,10,-109,-223,-312
-175,2239,35,-31,78,183,104,-51,-185,-172
-37,2180,-8,11,-29,116,68,-77,-245,-65
30,1977,7,141,-68,55,2,-132,-258,-35
-37,1486,31,130,-58,36,3,-92,-184,-15
-325,889,40,62,-32,3,-11,-82,-141,-24
-366,517,56,153,-17,-61,-97,-149,-132,-87
179,323,34,197,-110,-180,-175,-149,-13,12
598,-29,12,81,-171,-177,-130,-128,-7,95
555,-395,-16,-83,-178,-61,25,-22,7,80
419,-457,-71,-196,-161,0,141,152,200,155
258,-309,-73,-117,5,12,80,147,235,143
-34,59,-62,-60,94,34,1,60,171,54
-292,547,-12,-89,63,31,-29,-6,115,-53
-265,1025,76,-104,57,4,-73,-67,4,-117
-52,1580,49,-89,52,6,-71,-39,60,42
47,2086,24,-25,76,63,0,12,108,90
-1,2329,44,61,82,101,108,77,48,-41
2,2263,-5,18,7,47,98,54,-35,-188
200,1987,-128,-85,-115,-65,-15,-22,-79,-142
200,1406,-257,-187,-257,-178,-65,-7,-15,46
218,648,-239,-326,-468,-356,-97,56,119,285
134,-165,-107,-251,-433,-424,-185,-44,71,222
-24,-936,48,-24,-107,-254,-230,-156,-59,27
-19,-1594,90,28,154,23,-85,-81,-66,-22
-79,-2196,54,-22,299,255,120,55,-10,-8
-190,-2521,21,-23,326,303,215,101,1,-18
-186,-2542,-39,-14,244,243,218,70,-25,-117
-157,-2414,-116,-27,129,161,184,53,-23,-194
-170,-2127,-41,109,167,113,121,33,-55,-159
-140,-1712,105,237,204,87,70,-16,-143,-75
-56,-1216,214,285,174,63,28,-100,-309,-92
26,-599,202,197,116,45,28,-106,-307,-76
120,-3,32,34,40,-6,17,-103,-177,61
151,300,-92,-7,64,-38,-36,-158,-158,30
109,249,-135,-12,90,-61,-116,-175,-123,-64
5,-59,8,-121,-65,-154,-194,-77,170,-35
-29,-567,69,-186,-162,-179,-185,54,332,-56
-56,-1217,16,-184,-145,-144,-135,128,274,1
-137,-1760,31,-131,-142,-122,-95,112,168,4
-106,-2198,84,-40,-118,-104,-35,60,116,-15
140,-2463,166,44,-106,-92,15,49,131,48
446,-2526,173,39,-131,-87,29,53,156,109
273,-2444,21,-59,-154,-96,1,62,179,146
-20,-2289,-129,-124,-158,-100,-15,100,190,183
-27,-2004,-116,-105,-82,-39,53,124,183,210
-100,-1613,-18,-45,-6,28,82,93,102,123
-130,-1186,14,-2,36,60,38,42,-19,18
-125,-687,6,57,132,111,23,-16,-100,-21
-206,-152,-19,68,174,146,66,-19,-92,84
-166,318,-84,42,116,134,65,-76,-190,126
155,537,-111,-63,-69,43,38,-152,-303,18
267,402,-109,-157,-276,-82,15,-156,-278,-49
-5,19,-132,-215,-403,-163,-13,-127,-265,-104
-39,-570,-37,-125,-380,-237,-104,-134,-292,-122
34,-1172,209,145,-107,-170,-207,-158,-228,-67
22,-1686,273,257,163,-12,-194,-38,-23,-90
-212,-2213,110,151,250,147,-2,243,170,-141
-341,-2599,-32,35,291,283,128,313,183,-145
-244,-2751,-49,66,297,308,152,203,103,-126
-60,-2642,-69,64,235,212,86,51,-23,-140
46,-2414,-48,15,171,103,-23,-92,-78,-103
139,-2067,-44,28,163,33,-113,-139,-59,78
232,-1583,-88,-3,133,-25,-169,-97,19,372
251,-1115,-118,-48,104,-17,-133,3,176,467
267,-467,-96,-78,66,32,-47,66,267,401
221,167,-59,-87,-39,62,36,115,307,187
156,531,-21,-63,-162,20,74,123,303,-2
-43,592,125,65,-192,0,106,116,275,-255
-228,512,236,171,-51,57,120,65,102,-469
-225,176,176,177,74,101,84,-18,-97,-419
14,-560,136,70,-25,-2,37,-11,-69,-111
152,-2040,107,47,-11,14,69,14,-61,50
48,-3711,85,72,98,120,138,-2,-174,54
-115,-4234,81,154,119,112,113,-30,-263,-32
-94,-4404,38,140,15,5,9,-116,-346,-121
-160,-4337,19,61,-73,-73,-45,-179,-372,-151
-236,-4232,-41,-10,-103,-80,-37,-154,-267,-171
-68,-3863,-90,-92,-98,-55,2,-55,74,-74
61,-3339,-57,-103,-78,-39,28,119,431,51
23,-2758,-97,-93,-68,-20,66,198,411,90
130,-2129,-74,-29,-59,-4,70,123,197,26
312,-1328,-59,103,-44,-41,40,96,135,65
240,-633,-94,146,43,-33,-57,-16,38,0
91,-251,-79,-15,-6,-79,-140,-93,5,-22
169,-567,31,-192,-165,-190,-206,-134,4,140
134,-1081,-82,-279,-236,-248,-249,-179,-60,220
104,-1359,-180,-278,-209,-218,-211,-162,-101,198
0,-1765,-107,-174,-64,-92,-99,-69,-65,89
-256,-2171,-53,-17,157,35,-3,-12,-66,-111
-124,-2548,-48,60,297,155,149,94,-31,-199
-94,-2970,-38,38,285,201,253,181,17,-262
-333,-3245,-22,31,301,274,304,188,-13,-342
-232,-3017,47,-12,175,237,272,164,-30,-260
65,-2515,38,-128,-178,52,207,164,-3,-44
104,-1922,11,-4,-319,-53,176,136,57,86
-178,-1134,73,232,-219,-142,24,27,14,85
-426,-286,45,294,2,-132,-107,-124,-134,-44
-319,486,-25,244,213,29,-75,-136,-105,-103
-148,1299,-60,159,282,118,-64,-125,14,-147
141,2044,-102,60,235,140,-67,-106,0,-199
195,2320,11,8,155,130,-46,-23,-5,-124
58,2251,95,-92,41,61,-43,-3,1,-59
-9,1933,-29,-165,6,7,-73,-65,-77,-44
-5,1368,-36,-128,11,20,-57,-45,-144,-80
29,777,-2,-126,-46,-15,-58,7,-128,-101
71,68,-48,-144,-114,-79,-75,71,10,-33
7,-617,-15,-65,-105,-74,-33,131,67,-11
-30,-1091,12,-73,-99,-32,19,141,54,-34
-25,-1041,-2,-80,-73,-42,-3,69,-8,-24
-131,-327,-10,-38,-66,-74,-46,-8,-40,36
-175,-404,-39,-39,-50,-71,-47,-36,-7,71
-15,-566,-34,-76,-82,-61,-9,-10,40,181
134,-651,8,-74,-89,-42,21,-4,41,284
136,-501,65,7,-12,53,81,26,46,285
70,-204,141,107,54,109,90,62,44,266
110,190,166,101,39,73,36,46,27,293
146,434,44,-38,-93,-45,-19,56,60,294
48,260,-48,-81,-140,-84,-27,63,40,144
-7,-402,1,-49,-91,-72,-46,12,-62,95
0,-1443,-20,-41,-61,-75,-50,-8,-47,211
1,-2110,-37,0,4,3,0,-8,-61,202
-60,-2635,-4,-22,-18,21,48,59,9,219
-5,-2964,-57,-109,-149,-93,30,59,64,159
97,-3198,-99,-132,-162,-148,28,57,116,14
42,-3244,-108,-87,-108,-116,62,124,273,-45
44,-2995,-200,-166,-204,-191,48,127,316,-33
226,-2573,-225,-121,-75,-150,-72,-97,36,-103
291,-2103,-79,35,102,-13,-116,-217,-156,-29
168,-1521,51,108,73,-19,-160,-222,-169,155
-29,-981,245,253,93,-27,-212,-246,-177,120
-172,-613,350,273,127,81,-97,-136,-92,-24
24,-60,349,268,127,131,-68,-118,-106,-131
228,445,249,257,105,113,-86,-80,-44,-23
267,631,207,166,22,22,-107,-31,-3,124
389,611,76,24,-33,-51,-145,-31,-53,233
675,217,-213,-210,-100,-83,-124,31,20,384
582,-1011,-274,-243,-103,-50,-30,102,124,371
109,-1946,-226,-134,-36,12,17,54,29,238
-232,-2765,-143,-32,63,167,177,119,22,125
-751,-3535,6,83,203,363,377,211,19,-174
-1079,-3984,87,81,207,386,431,238,-22,-352
-691,-4106,106,4,85,195,229,99,-41,-352
-252,-4283,39,-76,0,75,118,30,55,-313
-107,-4043,17,-46,27,65,97,66,157,-375
-43,-3455,93,49,115,27,38,89,167,-308
-78,-2721,291,182,237,30,-52,50,50,-201
-105,-1791,255,190,201,28,-64,13,-48,-129
-218,-324,85,193,120,0,-78,-19,-75,-73
-200,1424,31,173,102,4,-91,-86,-160,16
-94,2466,7,39,23,-38,-142,-185,-247,106
-6,2813,-91,-128,-91,-142,-217,-237,-229,255
36,2761,-96,-170,-109,-160,-205,-212,-150,286
178,2505,-53,-152,-59,-93,-141,-204,-164,146
387,2064,11,-116,-9,-32,-97,-199,-184,7
349,1562,69,-53,30,34,-12,-66,38,-72
151,1116,83,0,78,88,65,94,206,-177
-71,769,48,0,78,57,59,81,83,-278
-75,476,6,-3,16,19,9,63,112,-174
95,452,-29,-17,-52,-16,-30,67,209,14
167,602,-12,8,-20,-29,-2,67,195,121
119,793,-10,5,-10,5,49,75,130,118
25,1133,-48,8,-8,25,58,43,32,21
-30,1539,-7,11,-18,-16,11,0,-23,21
-128,2044,-53,-40,-90,-90,-37,-9,-24,-12
-62,2651,-112,-86,-141,-143,-80,-13,-26,-53
15,3137,-153,-97,-116,-134,-94,-2,-4,-37
-138,3318,-64,-32,-46,-61,-56,48,-15,-107
-377,3173,-31,26,13,4,33,149,33,-190
-283,3040,-74,32,19,25,74,163,21,-127
23,2725,5,35,1,-11,7,66,-30,29
127,2134,7,2,-47,-59,-23,27,15,144
34,1515,-107,-76,-124,-67,36,66,119,189
3,1063,-176,-82,-110,-64,64,76,161,111
92,796,-48,-12,-25,-62,-16,-48,85,89
221,717,13,-50,-68,-134,-97,-42,148,236
330,857,-45,-121,-118,-161,-129,-54,79,261
388,1079,-20,-55,-23,-53,-76,-92,-73,376
194,1413,-20,44,92,7,-53,-158,-253,206
187,1807,-105,32,104,7,-29,-145,-269,-32
-52,2101,-98,-20,84,43,39,-17,-30,-69
-130,2583,-93,-141,-11,111,120,129,228,149
48,3255,-140,-246,-155,65,125,188,343,341
-114,3716,-84,-157,-131,8,75,132,249,60
-333,3792,6,18,-47,13,1,31,60,-392
-79,3699,129,159,-19,-51,-126,-76,-33,-397
160,3251,208,276,160,7,-120,-102,-27,-156
190,2483,181,290,322,142,-13,-28,-47,10
89,1680,138,351,422,152,-30,-75,-178,-13
79,938,91,400,386,102,-68,-137,-222,10
-133,277,82,341,325,122,13,-101,-185,19
-442,-190,54,215,243,155,113,-54,-162,-85
-341,-367,-28,35,55,114,150,-3,-126,-219
-114,-324,-85,-85,-101,43,169,69,-29,-212
-2,-133,31,-124,-233,-43,139,66,-31,-197
-70,166,125,-108,-208,-28,38,-53,-163,-133
-179,557,79,-28,-12,16,-13,-93,-195,-36
-268,1018,144,95,121,47,19,-4,-82,-15
-361,1640,126,105,158,97,83,66,-47,-41
-342,2298,3,-51,32,52,99,106,59,-71
-39,2752,-58,-167,-129,-50,14,80,222,-78
251,2812,-61,-115,-143,-68,-64,-1,200,-48
307,2532,1,94,-121,-27,-92,-56,87,31
149,1910,-21,100,-136,-14,-62,-26,70,103
160,1139,-109,-43,-169,-68,-74,-64,12,115
294,423,-144,-110,-152,-86,-61,-85,-25,142
269,-208,-170,-130,-62,-20,16,38,59,219
137,-693,-188,-138,-58,-39,49,155,106,166
170,-1086,-46,-71,-113,-100,30,207,57,48
106,-1253,205,30,-60,-64,51,214,3,-123
-124,-1235,260,69,14,8,112,187,33,-209
-108,-978,124,1,-46,-25,78,84,53,-55
8,-541,2,-61,-98,-41,44,25,104,165
14,-50,-44,-36,-54,14,58,-12,57,143
7,212,-95,-3,14,98,84,6,8,-9
-99,167,-190,18,95,183,109,63,-30,-148
-288,710,-124,7,102,155,49,4,-125,-265
-239,1150,3,5,26,-10,-102,-122,-196,-164
-95,1245,170,37,12,-78,-162,-186,-239,-16
51,1093,213,7,6,-54,-112,-169,-232,51
202,659,101,-36,-11,-44,-72,-114,-170,118
188,119,33,-43,-43,-51,-59,-109,-123,145
62,-344,-4,-75,-69,-69,-78,-106,-71,191
16,-693,-36,-79,-57,-78,-113,-146,-125,181
13,-1008,-69,-90,-56,-94,-120,-202,-268,202
74,-1166,-108,-120,-97,-101,-97,-147,-231,273
80,-1095,-144,-123,-93,-56,-50,-28,-62,233
34,-885,-64,-109,-77,-26,13,83,117,85
34,-507,-51,-116,-82,-45,-4,46,165,-45
-22,-25,-42,-79,-47,-25,1,53,315,-89
-100,433,-7,-44,-40,-2,97,216,584,-27
-122,1049,1,-24,-70,-3,159,263,522,10
-65,1703,-11,-20,-56,17,185,201,276,2
-5,2122,27,49,40,72,126,35,-51,-138
-48,2174,40,67,44,81,13,-120,-288,-325
10,2008,-5,0,2,36,-21,-92,-249,-274
230,1552,97,74,13,-24,-38,-43,-89,-81
454,846,184,148,17,-125,-173,-107,-9,95
487,108,154,170,88,-48,-177,-68,85,197
65,-568,108,156,186,117,-30,89,171,-4
-33,-1103,74,91,189,144,46,189,118,-242
192,-1574,-1,-15,88,91,72,213,65,-110
111,-1852,-97,-62,-44,-21,25,138,102,122
44,-1992,13,138,32,46,96,162,195,315
65,-1950,109,199,73,93,131,165,224,477
-8,-1911,12,3,-36,-2,65,73,125,505
-178,-2024,-89,-156,-97,-46,-20,-63,-109,230
-302,-1578,-129,-117,-34,-2,-37,-177,-350,-148
-484,-1005,-183,-61,6,11,-46,-220,-471,-454
-518,-554,-150,-39,67,44,-29,-194,-430,-517
-409,-333,54,49,182,138,26,-138,-332,-466
-173,-21,76,34,169,151,70,-59,-279,-426
103,1862,0,1,120,98,40,-90,-295,-415
9,2903,-39,30,108,92,18,-108,-203,-396
-165,2024,-68,21,64,80,42,-8,-23,-325
-176,1131,25,75,100,115,83,82,116,-225
-124,436,93,107,102,98,59,83,189,-109
35,-114,12,-24,-7,26,50,127,295,2
120,-492,-1,-140,-91,-52,15,120,305,80
99,-682,-27,-170,-112,-92,-27,87,215,150
226,-687,-67,-130,-115,-100,-55,48,160,276
205,-508,-79,-20,-37,-79,-81,-44,61,333
44,-173,-76,69,19,-73,-114,-102,-27,258
6,354,-64,73,19,-49,-83,-54,-12,166
5,1104,-23,87,68,2,-12,-40,-98,26
218,1826,-32,7,-27,-40,-58,-148,-243,40
275,2278,-77,-119,-114,-102,-119,-227,-240,275
74,2228,-89,-220,-145,-120,-135,-233,-202,256
-26,1918,21,-260,-158,-99,-62,-146,-149,74
-61,1468,124,-103,-136,-35,32,-21,-14,34
-53,794,96,35,-100,-24,46,68,147,-56
10,40,85,47,-75,-80,-36,39,131,-105
-15,-734,108,76,8,-52,-59,-25,-53,-129
-110,-1303,24,11,86,8,26,90,20,-232
-99,-1702,-74,-23,112,11,33,203,115,-189
-102,-1875,-79,0,164,62,11,205,194,-25
-143,-1730,-40,-10,159,103,13,127,166,-26
-33,-1402,-57,-132,-45,37,9,62,133,-31
-33,-1003,-121,-166,-216,-6,47,34,110,-86
-70,-525,-77,-33,-233,-6,39,-16,44,-96
-34,-29,-1,26,-171,66,45,-31,-12,-41
65,577,-158,-98,-124,127,150,88,58,79
204,1222,-232,-248,-269,-19,148,168,154,223
221,1555,-135,-140,-231,-153,-8,45,50,217
208,1443,23,86,39,-74,-126,-83,-63,148
257,1115,50,150,160,-21,-187,-176,-128,177
317,297,-134,74,84,-123,-265,-200,-53,335
265,-936,-252,36,72,-88,-217,-157,-40,322
319,-1734,-216,27,70,-25,-149,-70,31,237
371,-2400,14,64,39,-23,-80,62,199,286
-126,-3072,352,156,86,89,86,157,188,-17
-615,-3546,337,154,150,164,177,156,105,-400
-323,-3532,179,81,154,55,42,31,59,-412
-216,-3421,51,62,198,4,-28,-30,43,-260
-471,-3337,34,129,311,91,42,-8,12,-204
-416,-2988,54,156,312,155,107,33,-11,-167
-159,-2445,41,83,101,93,102,64,39,-6
-79,-1785,-10,-9,-78,-13,57,57,98,127
-15,-944,-61,-111,-218,-109,0,3,51,142
263,-165,52,-82,-325,-147,-34,-35,-47,90
409,193,203,-26,-290,-103,19,-16,-68,82
417,155,236,4,-146,-48,15,-49,-134,61
171,-9,171,101,67,3,-36,-112,-229,-70
-261,-450,138,127,117,17,-38,-124,-247,-149
-272,-932,88,37,40,-20,-22,-67,-116,-5
-102,-1237,21,-42,-2,-31,1,-31,-49,50
-34,-1478,-47,-98,-53,-74,-22,-37,8,17
-7,-1671,-78,-102,-37,-73,-22,-54,96,-20
71,-1722,-102,-86,4,-35,-2,-72,86,-20
17,-1586,-132,-46,25,5,73,-16,74,19
-66,-1243,-33,17,31,27,120,75,71,36
-27,-666,0,45,35,21,97,95,-60,-31
39,-65,-150,-55,-46,-8,67,57,-167,-53
1,558,-363,-217,-215,-110,34,2,-209,70
16,1210,-352,-256,-259,-173,-18,-64,-200,229
-3,1773,-228,-148,-113,-84,-14,-96,-126,309
-137,2115,-58,0,56,19,9,-100,-68,180
-365,2067,139,223,288,186,70,-54,-1,-143
-251,1845,151,252,336,274,132,16,62,-272
113,1652,33,51,122,136,74,49,76,-212
351,1251,32,-38,-70,-41,-14,49,106,-167
259,695,139,57,-41,-45,-45,22,63,-183
101,240,158,148,31,-19,-73,-33,-4,-148
235,-79,82,119,20,-3,-65,-50,31,52
399,-399,-64,52,40,17,-7,-35,61,189
452,-505,-23,32,66,5,-12,-27,68,163
185,-266,17,33,86,12,-16,33,109,76
-16,202,104,141,99,31,21,63,67,-29
117,833,191,263,9,-87,-63,-8,55,59
150,1424,201,244,-59,-160,-136,-53,53,118
16,1976,177,143,-80,-161,-100,-24,86,172
-84,2635,107,32,-108,-151,-58,5,132,285
-153,3332,52,0,-75,-103,-9,18,107,233
-82,3847,-17,-58,6,4,82,58,54,83
-201,4024,-105,-164,21,69,128,58,-79,-126
-281,4008,-122,-226,-24,10,38,-63,-278,-191
21,3767,-87,-201,-27,-46,-91,-219,-315,-115
259,3289,-37,-55,-31,-75,-117,-212,-235,-88
330,2671,-93,-22,-61,-93,-84,-61,32,40
154,1933,18,57,56,-32,1,61,105,74
103,1391,116,134,142,0,37,159,114,80
163,1160,44,87,195,42,75,261,148,117
-228,1151,-94,19,202,71,58,181,-100,-169
-685,1284,-164,-67,131,22,-19,-6,-336,-497
-592,1466,-110,-78,90,70,48,26,-164,-386
-494,1783,28,9,59,145,133,109,94,-198
-286,2294,127,71,-69,84,96,129,270,-90
47,2944,145,66,-212,-25,30,84,241,-7
175,3518,27,-42,-280,-46,58,105,217,9
140,3851,-93,-174,-313,-13,152,195,191,47
-16,3859,-59,-248,-331,-24,212,202,171,68
-115,3632,3,-174,-236,-43,151,148,151,78
-144,3225,-10,-33,-76,-6,77,56,102,0
4,2573,-63,-1,-56,-44,19,23,86,53
197,1792,-117,-59,-137,-160,-68,35,98,239
140,913,-125,57,28,-61,-112,10,44,218
81,41,-1,294,321,158,-12,-35,-114,-17
148,-650,142,323,369,233,82,-48,-155,-136
67,-969,182,216,238,161,74,-66,-153,-104
-126,-1108,159,164,112,67,37,-94,-187,-136
-66,-1061,85,30,-2,-1,-12,-118,-211,-40
47,-886,83,-70,-39,-8,-41,-131,-253,36
46,-619,91,-147,-61,-18,-38,-96,-204,-14
-33,-64,-6,-189,-31,-3,-26,-18,23,-70
-63,966,-48,-135,24,25,-26,83,288,-105
-70,1451,-35,-40,69,54,-17,121,358,-156
-39,1565,-13,4,87,57,-25,107,255,-149
-1,1316,-23,47,115,102,16,98,173,-69
106,853,35,13,52,88,56,68,118,83
208,227,14,-45,-49,7,30,4,29,166
356,-559,24,-25,-66,-80,-52,-90,-71,204
422,-1343,4,-32,-70,-83,-35,-70,-99,184
327,-2003,0,-46,-95,-84,-30,-70,-124,118
377,-2477,57,-3,-82,-67,-36,-85,-171,145
389,-2865,-12,-82,-168,-151,-91,-24,33,351
139,-3110,-96,-132,-220,-220,-148,21,225,369
-76,-3088,-120,-124,-178,-204,-160,15,253,132
-208,-2882,-67,-42,-45,-51,-46,48,201,-111
-488,-2516,7,39,95,160,99,92,124,-295
-332,-2512,-55,-75,-6,122,44,29,34,-282
-118,-3257,-117,-153,-75,44,-30,-30,-68,-260
42,-2341,-126,-130,-43,0,-130,-69,-175,-208
157,-1273,-164,-97,-34,-54,-163,-54,-219,-113
119,-631,-273,-71,-72,-47,-103,-31,-211,-145
67,-374,-309,-44,-109,-58,-51,21,-98,-18
-36,-327,-129,81,-29,-73,9,85,62,214
-150,-658,152,230,115,18,63,64,73,90
-202,-1123,286,279,218,93,12,-48,-60,-132
-418,-1529,255,266,325,155,-19,-109,-176,-272
-438,-1870,210,265,350,187,-2,-115,-216,-312
-254,-2151,51,106,177,101,49,-65,-126,-179
-316,-2453,-48,-10,95,82,110,53,16,-47
-380,-2435,32,-70,84,64,69,99,131,155
-232,-2193,17,-41,168,100,97,106,138,198
-247,-1819,42,150,325,169,174,149,96,6
-262,-1141,53,244,281,74,69,41,-8,-110
-266,-445,55,161,200,3,-14,-65,-99,-141
22,411,77,36,85,-14,-52,-102,-164,-147
168,1271,-20,-82,-94,-14,-57,-104,-208,-156
72,1964,-101,113,-77,26,-17,-82,-164,-143
53,2352,87,410,-37,57,6,-49,-137,-41
156,2571,159,263,-183,2,2,11,-15,103
175,2517,39,-42,-252,-63,-12,12,-26,105
103,2041,-60,-157,-237,-33,25,-24,-106,-11
116,1509,-85,-201,-203,20,61,-27,-158,-6
243,1095,81,-186,-160,-42,11,-57,-166,54
236,678,264,-70,-58,-9,-21,-115,-176,20
168,269,215,-27,55,140,28,-120,-197,7
107,106,85,-105,87,176,19,-138,-214,87
107,176,-97,-236,-33,48,-36,-128,-144,187
39,320,-224,-263,-83,27,17,-57,-16,200
36,675,-186,-238,-83,68,76,-2,28,217
133,1182,-151,-197,-77,13,-1,-2,7,213
65,1597,-92,-74,5,-64,-95,-42,-11,68
-49,2069,-68,-12,43,-74,-72,3,42,-96
41,2558,-111,-61,-31,-146,-88,60,183,-89
116,2790,-152,-111,-109,-268,-174,166,377,26
134,2644,-127,-88,-94,-239,-158,313,555,52
267,2340,47,-15,-66,-190,-121,312,469,105
198,1730,206,5,-61,-108,0,274,343,190
-140,836,55,-76,-94,-46,102,235,270,175
-68,39,-158,-191,-171,-85,64,92,131,93
281,-673,-158,-120,-98,-129,-69,-136,-16,157
266,-1437,-161,-7,74,-76,-145,-178,1,311
55,-2147,-8,44,149,0,-50,-19,145,466
-241,-2538,66,105,120,58,88,81,165,366
-282,-2579,91,264,145,76,94,30,26,108
-60,-2361,123,371,230,83,92,16,10,-72
-9,-1984,109,267,130,57,82,35,32,-205
-33,-1426,34,40,-55,-61,-26,-30,-35,-321
-82,-750,-41,-97,-136,-135,-91,-76,-37,-274
-102,-1,-34,-58,-54,-67,-77,-78,-33,-187
-138,772,-6,-40,-34,-21,-62,-94,-47,-157
-131,1281,62,-127,-163,-77,-37,-25,-40,-92
-44,1459,132,-149,-150,-74,-43,-34,-106,-99
-137,1362,129,-46,33,35,-35,-85,-200,-197
-234,1021,144,70,175,148,15,-45,-234,-205
44,637,123,88,177,155,37,47,-166,-47
460,346,60,15,69,67,5,91,-39,195
484,57,-32,-57,-42,-48,-82,-10,10,338
236,-170,-89,-133,-151,-167,-151,-140,-9,268
245,-298,-41,-100,-127,-139,-137,-215,-62,179
176,-305,-63,-53,-42,-89,-147,-231,-70,145
-82,-195,-58,11,44,-8,-99,-127,50,87
-375,36,-9,73,140,121,44,24,84,-126
-465,495,15,75,130,162,120,47,-21,-248
-550,996,19,64,79,162,143,35,-66,-271
-645,1539,84,114,62,174,149,77,-20,-309
-506,2134,184,205,64,189,127,112,19,-216
-242,2543,194,211,84,217,162,106,-16,-129
-19,2632,106,108,32,159,154,41,-77,-92
243,2504,-49,-72,-155,9,80,-45,-172,-60
235,2001,-157,-193,-283,-80,68,-63,-240,25
-49,1147,-249,-293,-389,-115,120,27,-190,70
-164,351,-273,-385,-518,-221,106,101,-102,91
-68,-232,-100,-224,-396,-300,-75,-68,-190,12
-36,-738,59,54,-56,-169,-158,-216,-189,-102
-19,-1223,99,159,150,33,-57,-19,214,-10
71,-1421,123,225,268,150,-25,69,399,94
105,-1376,176,319,405,245,-17,36,247,114
86,-1285,176,273,373,254,43,85,143,132
152,-1025,149,203,297,218,94,64,76,112
227,-619,112,140,217,167,77,54,30,39
248,-159,66,78,138,123,53,47,-1,21
82,370,1,23,92,95,24,34,32,55
-127,785,-38,-21,49,56,-22,-16,29,19
-137,931,-40,-66,32,42,-46,-47,-36,-27
-108,765,-40,-26,12,17,-51,-85,-123,-104
-33,446,-32,83,-16,-49,-85,-175,-224,-214
119,-139,-6,89,-30,-108,-132,-254,-275,-239
274,-908,64,80,-69,-170,-211,-331,-368,-204
320,-1671,72,1,-130,-207,-216,-293,-375,-70
311,-2349,20,-53,-114,-150,-101,-159,-225,105
377,-2876,-65,-84,-99,-92,0,-43,-92,304
216,-3359,-126,-81,-80,-37,78,85,42,344
62,-3491,-173,-68,-51,14,135,159,195,280
108,-3281,-192,-98,-76,2,149,229,343,236
81,-2849,-186,-165,-164,-85,128,281,386,165
-142,-2224,-202,-191,-161,-86,71,246,342,6
-274,-1493,-34,-48,40,67,72,170,214,-106
-474,-422,91,25,131,126,65,132,172,-160
-456,535,42,-10,121,126,48,128,235,-113
-53,1203,-62,-85,90,109,77,195,370,134
296,1662,-119,-93,56,12,-12,91,258,267
274,1859,-126,-26,91,-46,-130,-93,33,87
-173,1750,-212,-36,106,-32,-96,-64,29,-148
-220,1578,-68,17,147,44,-26,-37,-18,-325
-1,1262,-68,82,65,36,-38,-100,-85,-214
126,928,-131,143,1,-31,-55,-129,-102,-52
91,644,-119,162,-26,-123,-107,-179,-186,-118
100,409,-78,104,-7,-137,-122,-172,-146,-21
235,380,-96,-24,-24,-137,-148,-172,-105,162
437,592,-69,-148,-139,-161,-121,-94,-68,306
224,729,-39,-304,-335,-185,16,118,-4,246
-19,1061,8,-392,-534,-262,77,272,85,242
-212,1463,129,-159,-428,-176,84,241,112,253
-565,1734,424,219,-41,27,88,87,-3,-191
-419,2260,553,246,54,97,118,80,-11,-465
-99,2799,397,138,55,146,128,103,71,-373
84,3091,167,24,99,183,92,52,70,-246
-5,2927,64,3,156,215,88,6,-43,-168
-159,2528,127,145,292,312,146,5,-147,-103
-209,2029,152,178,314,307,166,22,-138,-62
-393,1296,128,152,276,253,147,-13,-145,-128
-565,590,64,94,169,144,79,-77,-166,-249
-365,34,-72,-14,10,-14,-46,-127,-182,-275
-34,-416,-98,-78,-55,-86,-90,-123,-38,-162
212,-775,-95,-72,-32,-92,-91,-99,53,-157
528,-980,-103,-75,-44,-105,-114,-125,0,-139
611,-1173,-64,-62,-32,-84,-49,-95,-47,-11
327,-1307,-94,-103,-76,-58,51,17,7,138
-58,-1216,-166,-201,-186,-72,103,88,74,196
-375,-1009,-140,-141,-149,-29,91,55,-14,84
-317,-608,-2,27,-51,5,21,-44,-131,-28
-10,-39,75,87,-31,-13,-50,-66,-165,-56
21,334,56,105,64,32,-46,-33,-162,-146
-52,401,43,108,126,93,2,43,-161,-176
35,197,23,86,100,78,-14,33,-126,-30
128,-167,-9,45,5,-30,-94,-67,-107,92
202,-758,-8,15,-47,-89,-110,-121,-24,170
248,-1492,2,-7,-64,-69,-89,-103,21,200
228,-2211,-46,-41,-66,-45,-51,-83,-64,194
66,-2843,-140,-112,-54,-41,5,-82,-130,150
-84,-3314,-115,-96,-20,-15,64,-30,-58,30
18,-3491,-11,-20,16,9,77,44,129,5
262,-3351,-2,15,30,15,61,127,344,140
354,-3126,26,35,67,41,64,118,321,196
194,-2744,60,81,114,97,66,64,145,148
-49,-2154,47,84,126,107,28,-6,-49,12
-12,-1445,-4,19,75,34,-81,-118,-171,-107
126,-677,27,67,9,-42,-125,-158,-127,-72
70,74,-27,68,-57,-91,-111,-118,6,10
94,632,-91,-6,-98,-92,-119,-85,66,29
140,839,-74,-29,-93,-96,-132,-74,85,45
-77,777,-100,-78,-52,-58,-81,17,135,0
-187,567,-82,-87,-9,3,-1,79,122,-69
-45,134,34,-17,42,38,43,87,70,-21
80,-302,43,46,78,50,68,99,47,46
150,-585,12,76,87,42,81,120,59,53
124,-793,50,39,36,-23,49,94,26,90
-34,-959,-62,-43,-40,-80,13,44,-34,84
58,-888,-92,-89,-110,-100,21,42,-21,110
96,-599,-103,-126,-163,-118,49,44,33,126
-34,-157,-162,-215,-245,-140,11,28,79,121
-200,389,-152,-259,-299,-210,-47,54,227,179
-151,1060,-120,-238,-286,-278,-112,41,212,170
42,1803,-184,-243,-220,-266,-126,-35,-17,58
96,2516,-173,-125,17,-106,-72,-141,-245,-20
204,3141,-64,53,287,124,0,-211,-363,-2
153,3454,-6,143,437,304,102,-150,-358,-55
-139,3357,-31,175,330,300,136,-34,-206,45
-281,3148,86,212,146,209,77,-28,-122,125
-185,2699,218,194,-11,88,37,-2,-20,88
-240,1956,117,12,-130,0,34,79,153,40
-321,1280,23,-120,-147,-65,31,138,295,-71
-387,748,32,-48,2,13,43,128,230,-327
-150,398,65,46,135,112,64,59,89,-454
186,182,46,92,122,87,25,40,44,-236
247,183,-38,89,34,-51,-96,12,84,59
196,233,-136,106,68,-106,-140,9,87,163
-181,236,-156,155,186,16,-48,90,23,17
-293,505,-51,152,213,77,20,148,-35,-131
-208,825,-57,98,107,46,58,126,-82,-288
-183,1170,59,45,-7,35,89,56,-118,-289
-127,1663,300,-14,-68,6,61,-36,-127,-148
-10,2118,351,20,-40,15,-18,-150,-168,-64
67,2192,307,81,-46,33,-46,-176,-135,-23
201,1895,181,59,-155,-18,-29,-70,0,104
130,1385,144,161,-108,-34,-43,-18,73,214
-21,648,172,246,10,-27,-90,-49,76,261
80,-34,159,153,23,-47,-98,-63,60,187
194,-596,113,25,1,-33,-26,-25,27,56
147,-1079,74,-6,28,10,21,-14,-35,20
-144,-1512,34,-37,4,-13,4,-24,-69,33
-237,-1824,17,-53,-33,-38,-19,-13,-30,67
-23,-1825,4,-13,-37,-34,-1,39,56,83
222,-1660,-71,-3,-43,-45,-5,70,153,70
196,-1404,-106,-43,-53,-16,11,67,146,-64
19,-983,-152,-161,-112,0,39,66,98,-193
-113,-581,-141,-171,-161,-60,18,62,112,-143
-141,-135,-26,-45,-71,-74,-80,-64,-10,-138
-141,335,27,-2,-17,-27,-58,-58,-43,-102
-101,660,4,-28,12,29,-37,-50,-86,-61
-13,651,-21,-89,40,61,-38,-87,-149,-26
114,412,-77,-138,23,31,-83,-169,-143,27
211,-22,-136,-161,-18,-5,-143,-267,-157,73
266,-650,-153,-184,-82,-85,-191,-285,-208,100
319,-1264,-133,-156,-82,-86,-163,-169,-166,185
307,-1884,-78,-57,8,37,-11,24,-71,253
416,-2375,50,63,81,82,66,142,-29,307
537,-2665,192,201,145,85,66,118,-59,241
181,-2828,248,289,202,146,126,129,-19,144
-171,-2701,155,220,151,129,142,133,91,-6
32,-2315,52,61,19,48,106,149,265,62
-116,-1873,-45,-58,-2,103,183,230,410,226
-444,-1328,-213,-159,1,125,245,250,389,119
-328,-537,-311,-36,52,34,145,107,210,-71
-146,361,-202,134,134,2,32,-37,-29,-224
9,1172,-122,132,98,-40,-38,-83,-114,-328
-41,1607,-77,129,73,-55,-56,-104,-136,-345
-129,1728,-295,-138,-61,-59,11,-8,0,-76
-152,1693,-164,-279,-192,-94,-6,0,65,53
-232,1372,76,-184,-128,-73,-70,-87,-68,-251
-264,837,236,17,34,12,-33,-95,-136,-410
-100,370,228,66,107,31,-5,-31,-60,-243
0,-63,100,-33,87,45,7,44,69,6
-21,-432,0,-163,12,69,49,105,159,93
20,-632,25,-127,-31,67,76,137,166,73
153,-534,33,-8,-95,29,104,155,145,59
152,-312,7,-5,-254,-83,60,97,89,60
-94,-98,15,-54,-249,-111,57,38,-9,28
-111,339,-3,-50,-170,-83,50,5,-69,102
-143,811,9,-9,-125,-59,35,-34,-111,57
-4,1463,5,-27,-150,-84,-20,-78,-133,6
188,2142,-6,-62,-204,-163,-101,-89,-111,-94
70,2428,-26,14,-87,-130,-108,-67,-100,-311
11,2288,-53,118,108,-36,-47,-32,-50,-231
-69,1857,-6,231,302,115,62,25,0,-163
-248,1237,-17,265,341,229,157,58,9,-173
-273,445,-145,219,276,220,99,-11,-112,-146
-73,-369,-61,251,283,140,-1,-126,-260,-58
50,-1142,261,218,162,46,-9,-136,-326,14
15,-1797,535,91,30,-12,0,-157,-394,-20
-26,-2253,407,-6,-77,-75,-30,-207,-435,-4
47,-2632,183,-88,-144,-144,-105,-267,-437,32
139,-2723,101,-106,-98,-136,-94,-274,-368,13
232,-2686,24,-83,-54,-102,-25,-196,-181,-4
328,-2452,-60,-124,-92,-58,58,-1,91,100
276,-2143,-51,-110,-51,-27,53,67,193,141
139,-1711,0,-49,36,-9,-24,23,323,95
-33,-1124,21,-13,104,59,-39,88,450,58
-135,-600,-35,-62,19,10,-61,221,540,63
-171,-228,-46,-85,-97,-74,-95,246,507,41
-143,-251,0,-18,-32,-9,-33,259,370,-17
-50,-416,-12,-20,0,33,0,261,274,-50
185,-708,-10,-51,-47,-35,-62,114,202,15
406,-1299,-26,-78,-92,-91,-95,-34,115,164
590,-2076,-57,-96,-108,-91,-80,-130,2,317
658,-2656,-108,-129,-127,-120,-66,-149,-130,365
539,-3021,-96,-125,-115,-149,-100,-158,-207,335
-234,-3399,-27,-21,-22,-78,-64,-122,-238,61
-842,-3633,57,107,140,114,120,72,-105,-279
-807,-3390,123,148,185,143,160,134,34,-490
-361,-2851,96,79,90,33,60,94,127,-413
